# VitalDB case 2627, fingertip PPG, 125 Hz, 60 s
# cuff: 86/47  (arterial-line BP in the first 12 s, used for calibration)
# reference: 84/49  (true arterial-line BP over the remaining 48 s, for comparison only)
time_s,ppg
0.000,-11.27083
0.008,-11.36017
0.016,-11.44353
0.024,-11.52324
0.032,-11.60149
0.040,-11.67962
0.048,-11.75722
0.056,-11.83110
0.064,-11.89409
0.072,-11.93404
0.080,-11.93292
0.088,-11.86642
0.096,-11.70397
0.104,-11.40952
0.112,-10.94289
0.120,-10.26198
0.128,-9.32563
0.136,-8.09687
0.144,-6.54662
0.152,-4.65719
0.160,-2.42544
0.168,0.13490
0.176,2.99190
0.184,6.09554
0.192,9.37904
0.200,12.76171
0.208,16.15295
0.216,19.45746
0.224,22.58094
0.232,25.43582
0.240,27.94649
0.248,30.05348
0.256,31.71646
0.264,32.91582
0.272,33.65273
0.280,33.94790
0.288,33.83896
0.296,33.37695
0.304,32.62207
0.312,31.63924
0.320,30.49357
0.328,29.24638
0.336,27.95183
0.344,26.65444
0.352,25.38756
0.360,24.17279
0.368,23.02025
0.376,21.92961
0.384,20.89173
0.392,19.89067
0.400,18.90606
0.408,17.91549
0.416,16.89698
0.424,15.83119
0.432,14.70341
0.440,13.50501
0.448,12.23436
0.456,10.89701
0.464,9.50530
0.472,8.07730
0.480,6.63530
0.488,5.20391
0.496,3.80806
0.504,2.47095
0.512,1.21233
0.520,0.04717
0.528,-1.01514
0.536,-1.97094
0.544,-2.82184
0.552,-3.57370
0.560,-4.23541
0.568,-4.81754
0.576,-5.33103
0.584,-5.78620
0.592,-6.19201
0.600,-6.55568
0.608,-6.88254
0.616,-7.17620
0.624,-7.43887
0.632,-7.67179
0.640,-7.87575
0.648,-8.05165
0.656,-8.20090
0.664,-8.32577
0.672,-8.42941
0.680,-8.51567
0.688,-8.58879
0.696,-8.65288
0.704,-8.71150
0.712,-8.76733
0.720,-8.82205
0.728,-8.87642
0.736,-8.93052
0.744,-8.98403
0.752,-9.03649
0.760,-9.08759
0.768,-9.13723
0.776,-9.18571
0.784,-9.23381
0.792,-9.28285
0.800,-9.33471
0.808,-9.39177
0.816,-9.45669
0.824,-9.53213
0.832,-9.62034
0.840,-9.72276
0.848,-9.83978
0.856,-9.97057
0.864,-10.11323
0.872,-10.26495
0.880,-10.42249
0.888,-10.58255
0.896,-10.74222
0.904,-10.89938
0.912,-11.05289
0.920,-11.20275
0.928,-11.35009
0.936,-11.49706
0.944,-11.64664
0.952,-11.80237
0.960,-11.96808
0.968,-12.14752
0.976,-12.34411
0.984,-12.56078
0.992,-12.79997
1.000,-13.06372
1.008,-13.35396
1.016,-13.67277
1.024,-14.02267
1.032,-14.40671
1.040,-14.82840
1.048,-15.29138
1.056,-15.79870
1.064,-16.35187
1.072,-16.94962
1.080,-17.58656
1.088,-18.25182
1.096,-18.92795
1.104,-19.59026
1.112,-20.20659
1.120,-20.73780
1.128,-21.13879
1.136,-21.36023
1.144,-21.35073
1.152,-21.05941
1.160,-20.43874
1.168,-19.44742
1.176,-18.05316
1.184,-16.23505
1.192,-13.98558
1.200,-11.31193
1.208,-8.23682
1.216,-4.79889
1.224,-1.05252
1.232,2.93264
1.240,7.07289
1.248,11.27250
1.256,15.42709
1.264,19.42823
1.272,23.16915
1.280,26.55103
1.288,29.48897
1.296,31.91718
1.304,33.79263
1.312,35.09688
1.320,35.83606
1.328,36.03912
1.336,35.75455
1.344,35.04601
1.352,33.98722
1.360,32.65668
1.368,31.13244
1.376,29.48764
1.384,27.78683
1.392,26.08348
1.400,24.41858
1.408,22.82043
1.416,21.30526
1.424,19.87873
1.432,18.53781
1.440,17.27299
1.448,16.07059
1.456,14.91496
1.464,13.79046
1.472,12.68328
1.480,11.58281
1.488,10.48269
1.496,9.38143
1.504,8.28260
1.512,7.19447
1.520,6.12930
1.528,5.10213
1.536,4.12931
1.544,3.22695
1.552,2.40926
1.560,1.68719
1.568,1.06733
1.576,0.55133
1.584,0.13586
1.592,-0.18689
1.600,-0.42843
1.608,-0.60279
1.616,-0.72551
1.624,-0.81260
1.632,-0.87972
1.640,-0.94150
1.648,-1.01100
1.656,-1.09912
1.664,-1.21428
1.672,-1.36202
1.680,-1.54494
1.688,-1.76270
1.696,-2.01232
1.704,-2.28868
1.712,-2.58522
1.720,-2.89474
1.728,-3.21020
1.736,-3.52541
1.744,-3.83550
1.752,-4.13716
1.760,-4.42867
1.768,-4.70971
1.776,-4.98121
1.784,-5.24500
1.792,-5.50355
1.800,-5.75963
1.808,-6.01603
1.816,-6.27531
1.824,-6.53953
1.832,-6.81022
1.840,-7.08821
1.848,-7.37364
1.856,-7.66591
1.864,-7.96375
1.872,-8.26528
1.880,-8.56810
1.888,-8.86949
1.896,-9.16661
1.904,-9.45676
1.912,-9.73760
1.920,-10.00732
1.928,-10.26476
1.936,-10.50937
1.944,-10.74111
1.952,-10.96020
1.960,-11.16680
1.968,-11.36063
1.976,-11.54064
1.984,-11.70495
1.992,-11.85085
2.000,-11.97530
2.008,-12.07549
2.016,-12.14954
2.024,-12.19712
2.032,-12.21980
2.040,-12.22111
2.048,-12.20638
2.056,-12.18214
2.064,-12.15544
2.072,-12.13294
2.080,-12.11998
2.088,-12.11957
2.096,-12.13153
2.104,-12.15172
2.112,-12.17150
2.120,-12.17758
2.128,-12.15215
2.136,-12.07337
2.144,-11.91613
2.152,-11.65291
2.160,-11.25478
2.168,-10.69249
2.176,-9.93774
2.184,-8.96464
2.192,-7.75144
2.200,-6.28251
2.208,-4.55044
2.216,-2.55811
2.224,-0.32044
2.232,2.13441
2.240,4.76470
2.248,7.51590
2.256,10.32252
2.264,13.11112
2.272,15.80418
2.280,18.32454
2.288,20.59999
2.296,22.56773
2.304,24.17806
2.312,25.39723
2.320,26.20900
2.328,26.61508
2.336,26.63424
2.344,26.30034
2.352,25.65935
2.360,24.76573
2.368,23.67829
2.376,22.45608
2.384,21.15456
2.392,19.82234
2.400,18.49887
2.408,17.21313
2.416,15.98338
2.424,14.81784
2.432,13.71614
2.440,12.67122
2.448,11.67156
2.456,10.70346
2.464,9.75317
2.472,8.80873
2.480,7.86132
2.488,6.90618
2.496,5.94281
2.504,4.97477
2.512,4.00896
2.520,3.05454
2.528,2.12181
2.536,1.22121
2.544,0.36252
2.552,-0.44557
2.560,-1.19554
2.568,-1.88095
2.576,-2.49617
2.584,-3.03619
2.592,-3.49659
2.600,-3.87368
2.608,-4.16487
2.616,-4.36925
2.624,-4.48818
2.632,-4.52591
2.640,-4.48994
2.648,-4.39119
2.656,-4.24374
2.664,-4.06421
2.672,-3.87079
2.680,-3.68194
2.688,-3.51507
2.696,-3.38505
2.704,-3.30315
2.712,-3.27611
2.720,-3.30584
2.728,-3.38961
2.736,-3.52074
2.744,-3.68981
2.752,-3.88595
2.760,-4.09829
2.768,-4.31712
2.776,-4.53477
2.784,-4.74620
2.792,-4.94909
2.800,-5.14376
2.808,-5.33261
2.816,-5.51950
2.824,-5.70893
2.832,-5.90527
2.840,-6.11210
2.848,-6.33181
2.856,-6.56540
2.864,-6.81254
2.872,-7.07179
2.880,-7.34091
2.888,-7.61713
2.896,-7.89728
2.904,-8.17788
2.912,-8.45506
2.920,-8.72457
2.928,-8.98187
2.936,-9.22239
2.944,-9.44195
2.952,-9.63724
2.960,-9.80621
2.968,-9.94853
2.976,-10.06562
2.984,-10.16065
2.992,-10.23818
3.000,-10.30362
3.008,-10.36257
3.016,-10.42010
3.024,-10.48015
3.032,-10.54501
3.040,-10.61508
3.048,-10.68874
3.056,-10.76257
3.064,-10.83164
3.072,-10.89017
3.080,-10.93233
3.088,-10.95306
3.096,-10.94899
3.104,-10.91893
3.112,-10.86401
3.120,-10.78730
3.128,-10.69273
3.136,-10.58351
3.144,-10.46029
3.152,-10.31905
3.160,-10.14942
3.168,-9.93338
3.176,-9.64487
3.184,-9.25037
3.192,-8.71056
3.200,-7.98311
3.208,-7.02626
3.216,-5.80308
3.224,-4.28593
3.232,-2.46062
3.240,-0.33000
3.248,2.08384
3.256,4.73880
3.264,7.57398
3.272,10.51267
3.280,13.46701
3.288,16.34386
3.296,19.05119
3.304,21.50426
3.312,23.63105
3.320,25.37637
3.328,26.70455
3.336,27.60037
3.344,28.06860
3.352,28.13198
3.360,27.82820
3.368,27.20616
3.376,26.32179
3.384,25.23396
3.392,24.00066
3.400,22.67587
3.408,21.30712
3.416,19.93385
3.424,18.58658
3.432,17.28666
3.440,16.04659
3.448,14.87076
3.456,13.75666
3.464,12.69639
3.472,11.67839
3.480,10.68939
3.488,9.71635
3.496,8.74811
3.504,7.77678
3.512,6.79854
3.520,5.81394
3.528,4.82766
3.536,3.84779
3.544,2.88487
3.552,1.95081
3.560,1.05787
3.568,0.21773
3.576,-0.55919
3.584,-1.26420
3.592,-1.89076
3.600,-2.43462
3.608,-2.89394
3.616,-3.26934
3.624,-3.56370
3.632,-3.78205
3.640,-3.93122
3.648,-4.01952
3.656,-4.05631
3.664,-4.05158
3.672,-4.01556
3.680,-3.95837
3.688,-3.88973
3.696,-3.81876
3.704,-3.75381
3.712,-3.70238
3.720,-3.67104
3.728,-3.66536
3.736,-3.68982
3.744,-3.74763
3.752,-3.84058
3.760,-3.96883
3.768,-4.13085
3.776,-4.32345
3.784,-4.54197
3.792,-4.78069
3.800,-5.03332
3.808,-5.29362
3.816,-5.55597
3.824,-5.81579
3.832,-6.06985
3.840,-6.31623
3.848,-6.55420
3.856,-6.78392
3.864,-7.00614
3.872,-7.22199
3.880,-7.43290
3.888,-7.64059
3.896,-7.84707
3.904,-8.05457
3.912,-8.26537
3.920,-8.48148
3.928,-8.70430
3.936,-8.93421
3.944,-9.17035
3.952,-9.41059
3.960,-9.65165
3.968,-9.88951
3.976,-10.11986
3.984,-10.33859
3.992,-10.54221
4.000,-10.72812
4.008,-10.89472
4.016,-11.04132
4.024,-11.16793
4.032,-11.27505
4.040,-11.36341
4.048,-11.43382
4.056,-11.48712
4.064,-11.52420
4.072,-11.54605
4.080,-11.55383
4.088,-11.54891
4.096,-11.53286
4.104,-11.50741
4.112,-11.47434
4.120,-11.43542
4.128,-11.39231
4.136,-11.34639
4.144,-11.29852
4.152,-11.24854
4.160,-11.19460
4.168,-11.13220
4.176,-11.05319
4.184,-10.94469
4.192,-10.78838
4.200,-10.56023
4.208,-10.23091
4.216,-9.76693
4.224,-9.13246
4.232,-8.29189
4.240,-7.21267
4.248,-5.86850
4.256,-4.24230
4.264,-2.32889
4.272,-0.13697
4.280,2.30961
4.288,4.97169
4.296,7.79555
4.304,10.71478
4.312,13.65320
4.320,16.52877
4.328,19.25812
4.336,21.76145
4.344,23.96730
4.352,25.81679
4.360,27.26698
4.368,28.29310
4.376,28.88938
4.384,29.06856
4.392,28.86012
4.400,28.30753
4.408,27.46470
4.416,26.39199
4.424,25.15199
4.432,23.80558
4.440,22.40839
4.448,21.00795
4.456,19.64179
4.464,18.33642
4.472,17.10732
4.480,15.95971
4.488,14.89000
4.496,13.88771
4.504,12.93759
4.512,12.02183
4.520,11.12229
4.528,10.22249
4.536,9.30933
4.544,8.37431
4.552,7.41423
4.560,6.43124
4.568,5.43231
4.576,4.42828
4.584,3.43254
4.592,2.45969
4.600,1.52426
4.608,0.63974
4.616,-0.18200
4.624,-0.93108
4.632,-1.59968
4.640,-2.18219
4.648,-2.67517
4.656,-3.07751
4.664,-3.39050
4.672,-3.61791
4.680,-3.76595
4.688,-3.84325
4.696,-3.86054
4.704,-3.83028
4.712,-3.76608
4.720,-3.68191
4.728,-3.59138
4.736,-3.50694
4.744,-3.43926
4.752,-3.39682
4.760,-3.38567
4.768,-3.40949
4.776,-3.46974
4.784,-3.56611
4.792,-3.69696
4.800,-3.85981
4.808,-4.05184
4.816,-4.27028
4.824,-4.51262
4.832,-4.77669
4.840,-5.06049
4.848,-5.36197
4.856,-5.67856
4.864,-6.00681
4.872,-6.34210
4.880,-6.67863
4.888,-7.00975
4.896,-7.32865
4.904,-7.62909
4.912,-7.90637
4.920,-8.15794
4.928,-8.38379
4.936,-8.58639
4.944,-8.77032
4.952,-8.94147
4.960,-9.10618
4.968,-9.27026
4.976,-9.43826
4.984,-9.61282
4.992,-9.79446
5.000,-9.98160
5.008,-10.17094
5.016,-10.35799
5.024,-10.53784
5.032,-10.70590
5.040,-10.85865
5.048,-10.99411
5.056,-11.11201
5.064,-11.21360
5.072,-11.30122
5.080,-11.37763
5.088,-11.44538
5.096,-11.50635
5.104,-11.56131
5.112,-11.60987
5.120,-11.65067
5.128,-11.68170
5.136,-11.70088
5.144,-11.70657
5.152,-11.69805
5.160,-11.67575
5.168,-11.64102
5.176,-11.59561
5.184,-11.54067
5.192,-11.47546
5.200,-11.39596
5.208,-11.29370
5.216,-11.15481
5.224,-10.95971
5.232,-10.68335
5.240,-10.29606
5.248,-9.76508
5.256,-9.05659
5.264,-8.13825
5.272,-6.98206
5.280,-5.56729
5.288,-3.88329
5.296,-1.93188
5.304,0.27097
5.312,2.69444
5.320,5.29330
5.328,8.00950
5.336,10.77488
5.344,13.51471
5.352,16.15186
5.360,18.61123
5.368,20.82407
5.376,22.73185
5.384,24.28935
5.392,25.46691
5.400,26.25153
5.408,26.64694
5.416,26.67248
5.424,26.36109
5.432,25.75643
5.440,24.90951
5.448,23.87503
5.456,22.70770
5.464,21.45889
5.472,20.17395
5.480,18.89027
5.488,17.63625
5.496,16.43108
5.504,15.28524
5.512,14.20154
5.520,13.17647
5.528,12.20190
5.536,11.26678
5.544,10.35884
5.552,9.46620
5.560,8.57865
5.568,7.68865
5.576,6.79187
5.584,5.88744
5.592,4.97775
5.600,4.06809
5.608,3.16606
5.616,2.28106
5.624,1.42370
5.632,0.60526
5.640,-0.16276
5.648,-0.86929
5.656,-1.50431
5.664,-2.05954
5.672,-2.52909
5.680,-2.91000
5.688,-3.20244
5.696,-3.40981
5.704,-3.53842
5.712,-3.59714
5.720,-3.59684
5.728,-3.54976
5.736,-3.46892
5.744,-3.36742
5.752,-3.25792
5.760,-3.15209
5.768,-3.06013
5.776,-2.99041
5.784,-2.94923
5.792,-2.94070
5.800,-2.96680
5.808,-3.02759
5.816,-3.12149
5.824,-3.24576
5.832,-3.39685
5.840,-3.57081
5.848,-3.76363
5.856,-3.97144
5.864,-4.19077
5.872,-4.41862
5.880,-4.65256
5.888,-4.89082
5.896,-5.13226
5.904,-5.37634
5.912,-5.62293
5.920,-5.87196
5.928,-6.12318
5.936,-6.37580
5.944,-6.62832
5.952,-6.87851
5.960,-7.12352
5.968,-7.36020
5.976,-7.58543
5.984,-7.79655
5.992,-7.99168
6.000,-8.16998
6.008,-8.33176
6.016,-8.47842
6.024,-8.61229
6.032,-8.73636
6.040,-8.85388
6.048,-8.96806
6.056,-9.08162
6.064,-9.19648
6.072,-9.31348
6.080,-9.43223
6.088,-9.55107
6.096,-9.66718
6.104,-9.77689
6.112,-9.87607
6.120,-9.96061
6.128,-10.02693
6.136,-10.07249
6.144,-10.09622
6.152,-10.09884
6.160,-10.08295
6.168,-10.05291
6.176,-10.01436
6.184,-9.97356
6.192,-9.93641
6.200,-9.90736
6.208,-9.88844
6.216,-9.87831
6.224,-9.87165
6.232,-9.85885
6.240,-9.82592
6.248,-9.75459
6.256,-9.62269
6.264,-9.40463
6.272,-9.07220
6.280,-8.59563
6.288,-7.94505
6.296,-7.09222
6.304,-6.01265
6.312,-4.68796
6.320,-3.10823
6.328,-1.27431
6.336,0.80047
6.344,3.08922
6.352,5.55145
6.360,8.13411
6.368,10.77361
6.376,13.39880
6.384,15.93482
6.392,18.30740
6.400,20.44728
6.408,22.29440
6.416,23.80144
6.424,24.93628
6.432,25.68344
6.440,26.04423
6.448,26.03569
6.456,25.68854
6.464,25.04428
6.472,24.15189
6.480,23.06427
6.488,21.83490
6.496,20.51476
6.504,19.14992
6.512,17.77965
6.520,16.43531
6.528,15.13976
6.536,13.90746
6.544,12.74500
6.552,11.65206
6.560,10.62283
6.568,9.64749
6.576,8.71400
6.584,7.80976
6.592,6.92320
6.600,6.04507
6.608,5.16935
6.616,4.29364
6.624,3.41923
6.632,2.55073
6.640,1.69547
6.648,0.86269
6.656,0.06280
6.664,-0.69336
6.672,-1.39518
6.680,-2.03281
6.688,-2.59775
6.696,-3.08326
6.704,-3.48489
6.712,-3.80075
6.720,-4.03185
6.728,-4.18215
6.736,-4.25847
6.744,-4.27014
6.752,-4.22851
6.760,-4.14621
6.768,-4.03639
6.776,-3.91188
6.784,-3.78444
6.792,-3.66405
6.800,-3.55852
6.808,-3.47330
6.816,-3.41158
6.824,-3.37461
6.832,-3.36222
6.840,-3.37333
6.848,-3.40651
6.856,-3.46035
6.864,-3.53379
6.872,-3.62621
6.880,-3.73737
6.888,-3.86729
6.896,-4.01596
6.904,-4.18301
6.912,-4.36753
6.920,-4.56788
6.928,-4.78174
6.936,-5.00633
6.944,-5.23864
6.952,-5.47587
6.960,-5.71569
6.968,-5.95652
6.976,-6.19751
6.984,-6.43843
6.992,-6.67936
7.000,-6.92032
7.008,-7.16092
7.016,-7.40019
7.024,-7.63654
7.032,-7.86794
7.040,-8.09219
7.048,-8.30720
7.056,-8.51134
7.064,-8.70364
7.072,-8.88384
7.080,-9.05232
7.088,-9.20987
7.096,-9.35738
7.104,-9.49544
7.112,-9.62420
7.120,-9.74312
7.128,-9.85106
7.136,-9.94637
7.144,-10.02711
7.152,-10.09138
7.160,-10.13762
7.168,-10.16503
7.176,-10.17379
7.184,-10.16534
7.192,-10.14252
7.200,-10.10955
7.208,-10.07191
7.216,-10.03584
7.224,-10.00755
7.232,-9.99209
7.240,-9.99196
7.248,-10.00562
7.256,-10.02606
7.264,-10.03985
7.272,-10.02671
7.280,-9.95976
7.288,-9.80658
7.296,-9.53081
7.304,-9.09433
7.312,-8.45973
7.320,-7.59309
7.328,-6.46665
7.336,-5.06146
7.344,-3.36973
7.352,-1.39664
7.360,0.83840
7.368,3.30136
7.376,5.94406
7.384,8.70566
7.392,11.51513
7.400,14.29457
7.408,16.96324
7.416,19.44201
7.424,21.65787
7.432,23.54814
7.440,25.06407
7.448,26.17346
7.456,26.86211
7.464,27.13405
7.472,27.01058
7.480,26.52812
7.488,25.73512
7.496,24.68835
7.504,23.44891
7.512,22.07822
7.520,20.63444
7.528,19.16940
7.536,17.72634
7.544,16.33843
7.552,15.02822
7.560,13.80778
7.568,12.67964
7.576,11.63821
7.584,10.67172
7.592,9.76431
7.600,8.89822
7.608,8.05588
7.616,7.22179
7.624,6.38395
7.632,5.53483
7.640,4.67173
7.648,3.79667
7.656,2.91580
7.664,2.03852
7.672,1.17648
7.680,0.34256
7.688,-0.45010
7.696,-1.18889
7.704,-1.86251
7.712,-2.46145
7.720,-2.97845
7.728,-3.40881
7.736,-3.75063
7.744,-4.00489
7.752,-4.17549
7.760,-4.26903
7.768,-4.29455
7.776,-4.26307
7.784,-4.18707
7.792,-4.07985
7.800,-3.95488
7.808,-3.82515
7.816,-3.70261
7.824,-3.59769
7.832,-3.51892
7.840,-3.47278
7.848,-3.46349
7.856,-3.49311
7.864,-3.56151
7.872,-3.66663
7.880,-3.80469
7.888,-3.97070
7.896,-4.15897
7.904,-4.36375
7.912,-4.57973
7.920,-4.80248
7.928,-5.02867
7.936,-5.25610
7.944,-5.48365
7.952,-5.71108
7.960,-5.93872
7.968,-6.16717
7.976,-6.39695
7.984,-6.62830
7.992,-6.86102
8.000,-7.09435
8.008,-7.32708
8.016,-7.55757
8.024,-7.78396
8.032,-8.00428
8.040,-8.21661
8.048,-8.41929
8.056,-8.61102
8.064,-8.79107
8.072,-8.95928
8.080,-9.11620
8.088,-9.26301
8.096,-9.40146
8.104,-9.53362
8.112,-9.66168
8.120,-9.78753
8.128,-9.91249
8.136,-10.03700
8.144,-10.16051
8.152,-10.28147
8.160,-10.39752
8.168,-10.50575
8.176,-10.60307
8.184,-10.68659
8.192,-10.75398
8.200,-10.80379
8.208,-10.83560
8.216,-10.85013
8.224,-10.84909
8.232,-10.83499
8.240,-10.81082
8.248,-10.77947
8.256,-10.74314
8.264,-10.70246
8.272,-10.65558
8.280,-10.59710
8.288,-10.51710
8.296,-10.40041
8.304,-10.22624
8.312,-9.96848
8.320,-9.59658
8.328,-9.07721
8.336,-8.37642
8.344,-7.46225
8.352,-6.30743
8.360,-4.89219
8.368,-3.20671
8.376,-1.25322
8.384,0.95246
8.392,3.38017
8.400,5.98553
8.408,8.71115
8.416,11.48897
8.424,14.24356
8.432,16.89634
8.440,19.37008
8.448,21.59356
8.456,23.50579
8.464,25.05949
8.472,26.22341
8.480,26.98349
8.488,27.34268
8.496,27.31973
8.504,26.94698
8.512,26.26764
8.520,25.33243
8.528,24.19618
8.536,22.91435
8.544,21.53991
8.552,20.12068
8.560,18.69724
8.568,17.30161
8.576,15.95661
8.584,14.67599
8.592,13.46509
8.600,12.32223
8.608,11.24029
8.616,10.20876
8.624,9.21570
8.632,8.24966
8.640,7.30129
8.648,6.36444
8.656,5.43675
8.664,4.51959
8.672,3.61755
8.680,2.73748
8.688,1.88743
8.696,1.07558
8.704,0.30948
8.712,-0.40450
8.720,-1.06123
8.728,-1.65678
8.736,-2.18816
8.744,-2.65307
8.752,-3.04981
8.760,-3.37730
8.768,-3.63523
8.776,-3.82439
8.784,-3.94697
8.792,-4.00687
8.800,-4.00991
8.808,-3.96377
8.816,-3.87786
8.824,-3.76295
8.832,-3.63073
8.840,-3.49324
8.848,-3.36239
8.856,-3.24939
8.864,-3.16423
8.872,-3.11512
8.880,-3.10799
8.888,-3.14609
8.896,-3.22976
8.904,-3.35647
8.912,-3.52120
8.920,-3.71698
8.928,-3.93573
8.936,-4.16896
8.944,-4.40852
8.952,-4.64716
8.960,-4.87895
8.968,-5.09951
8.976,-5.30617
8.984,-5.49785
8.992,-5.67483
9.000,-5.83843
9.008,-5.99059
9.016,-6.13349
9.024,-6.26930
9.032,-6.40008
9.040,-6.52773
9.048,-6.65407
9.056,-6.78087
9.064,-6.90978
9.072,-7.04215
9.080,-7.17880
9.088,-7.31966
9.096,-7.46352
9.104,-7.60795
9.112,-7.74935
9.120,-7.88323
9.128,-8.00464
9.136,-8.10866
9.144,-8.19094
9.152,-8.24821
9.160,-8.27866
9.168,-8.28220
9.176,-8.26052
9.184,-8.21699
9.192,-8.15644
9.200,-8.08478
9.208,-8.00854
9.216,-7.93443
9.224,-7.86883
9.232,-7.81747
9.240,-7.78515
9.248,-7.77565
9.256,-7.79171
9.264,-7.83504
9.272,-7.90632
9.280,-8.00507
9.288,-8.12952
9.296,-8.27639
9.304,-8.44057
9.312,-8.61479
9.320,-8.78919
9.328,-8.95102
9.336,-9.08427
9.344,-9.16964
9.352,-9.18460
9.360,-9.10391
9.368,-8.90040
9.376,-8.54617
9.384,-8.01409
9.392,-7.27963
9.400,-6.32289
9.408,-5.13063
9.416,-3.69822
9.424,-2.03129
9.432,-0.14680
9.440,1.92642
9.448,4.14801
9.456,6.46731
9.464,8.82539
9.472,11.15794
9.480,13.39874
9.488,15.48347
9.496,17.35363
9.504,18.96004
9.512,20.26575
9.520,21.24800
9.528,21.89904
9.536,22.22588
9.544,22.24892
9.552,21.99966
9.560,21.51770
9.568,20.84727
9.576,20.03382
9.584,19.12072
9.592,18.14668
9.600,17.14386
9.608,16.13698
9.616,15.14320
9.624,14.17276
9.632,13.23003
9.640,12.31488
9.648,11.42414
9.656,10.55296
9.664,9.69608
9.672,8.84878
9.680,8.00771
9.688,7.17129
9.696,6.33997
9.704,5.51619
9.712,4.70412
9.720,3.90923
9.728,3.13775
9.736,2.39625
9.744,1.69120
9.752,1.02882
9.760,0.41491
9.768,-0.14529
9.776,-0.64719
9.784,-1.08715
9.792,-1.46275
9.800,-1.77308
9.808,-2.01887
9.816,-2.20252
9.824,-2.32792
9.832,-2.40020
9.840,-2.42543
9.848,-2.41033
9.856,-2.36210
9.864,-2.28824
9.872,-2.19650
9.880,-2.09480
9.888,-1.99117
9.896,-1.89358
9.904,-1.80965
9.912,-1.74637
9.920,-1.70965
9.928,-1.70404
9.936,-1.73238
9.944,-1.79567
9.952,-1.89300
9.960,-2.02161
9.968,-2.17702
9.976,-2.35343
9.984,-2.54422
9.992,-2.74261
10.000,-2.94231
10.008,-3.13818
10.016,-3.32660
10.024,-3.50566
10.032,-3.67520
10.040,-3.83666
10.048,-3.99276
10.056,-4.14713
10.064,-4.30373
10.072,-4.46638
10.080,-4.63820
10.088,-4.82128
10.096,-5.01644
10.104,-5.22329
10.112,-5.44049
10.120,-5.66612
10.128,-5.89821
10.136,-6.13511
10.144,-6.37575
10.152,-6.61965
10.160,-6.86679
10.168,-7.11724
10.176,-7.37075
10.184,-7.62636
10.192,-7.88208
10.200,-8.13483
10.208,-8.38066
10.216,-8.61516
10.224,-8.83407
10.232,-9.03382
10.240,-9.21198
10.248,-9.36745
10.256,-9.50045
10.264,-9.61230
10.272,-9.70506
10.280,-9.78112
10.288,-9.84281
10.296,-9.89213
10.304,-9.93047
10.312,-9.95852
10.320,-9.97620
10.328,-9.98266
10.336,-9.97621
10.344,-9.95409
10.352,-9.91206
10.360,-9.84383
10.368,-9.74038
10.376,-9.58937
10.384,-9.37471
10.392,-9.07658
10.400,-8.67188
10.408,-8.13525
10.416,-7.44061
10.424,-6.56321
10.432,-5.48184
10.440,-4.18141
10.448,-2.65521
10.456,-0.90701
10.464,1.04745
10.472,3.17984
10.480,5.44945
10.488,7.80456
10.496,10.18471
10.504,12.52389
10.512,14.75431
10.520,16.81051
10.528,18.63333
10.536,20.17342
10.544,21.39408
10.552,22.27297
10.560,22.80287
10.568,22.99140
10.576,22.85962
10.584,22.43986
10.592,21.77291
10.600,20.90474
10.608,19.88326
10.616,18.75507
10.624,17.56280
10.632,16.34297
10.640,15.12473
10.648,13.92932
10.656,12.77034
10.664,11.65454
10.672,10.58297
10.680,9.55245
10.688,8.55703
10.696,7.58943
10.704,6.64243
10.712,5.71002
10.720,4.78828
10.728,3.87592
10.736,2.97442
10.744,2.08785
10.752,1.22226
10.760,0.38499
10.768,-0.41605
10.776,-1.17311
10.784,-1.87905
10.792,-2.52775
10.800,-3.11421
10.808,-3.63474
10.816,-4.08698
10.824,-4.46995
10.832,-4.78412
10.840,-5.03143
10.848,-5.21541
10.856,-5.34118
10.864,-5.41546
10.872,-5.44648
10.880,-5.44371
10.888,-5.41746
10.896,-5.37823
10.904,-5.33609
10.912,-5.29993
10.920,-5.27695
10.928,-5.27227
10.936,-5.28884
10.944,-5.32757
10.952,-5.38773
10.960,-5.46737
10.968,-5.56393
10.976,-5.67472
10.984,-5.79731
10.992,-5.92981
11.000,-6.07098
11.008,-6.22026
11.016,-6.37775
11.024,-6.54413
11.032,-6.72046
11.040,-6.90800
11.048,-7.10786
11.056,-7.32067
11.064,-7.54636
11.072,-7.78388
11.080,-8.03114
11.088,-8.28511
11.096,-8.54193
11.104,-8.79729
11.112,-9.04675
11.120,-9.28625
11.128,-9.51256
11.136,-9.72371
11.144,-9.91924
11.152,-10.10024
11.160,-10.26918
11.168,-10.42943
11.176,-10.58465
11.184,-10.73812
11.192,-10.89213
11.200,-11.04749
11.208,-11.20336
11.216,-11.35723
11.224,-11.50505
11.232,-11.64159
11.240,-11.76074
11.248,-11.85599
11.256,-11.92090
11.264,-11.94962
11.272,-11.93754
11.280,-11.88186
11.288,-11.78214
11.296,-11.64063
11.304,-11.46228
11.312,-11.25443
11.320,-11.02600
11.328,-10.78641
11.336,-10.54417
11.344,-10.30547
11.352,-10.07282
11.360,-9.84395
11.368,-9.61110
11.376,-9.36060
11.384,-9.07288
11.392,-8.72283
11.400,-8.28056
11.408,-7.71248
11.416,-6.98279
11.424,-6.05534
11.432,-4.89581
11.440,-3.47431
11.448,-1.76802
11.456,0.23601
11.464,2.53840
11.472,5.12532
11.480,7.96713
11.488,11.01800
11.496,14.21658
11.504,17.48792
11.512,20.74657
11.520,23.90082
11.528,26.85768
11.536,29.52850
11.544,31.83441
11.552,33.71147
11.560,35.11477
11.568,36.02118
11.576,36.43035
11.584,36.36395
11.592,35.86308
11.600,34.98440
11.608,33.79520
11.616,32.36804
11.624,30.77530
11.632,29.08439
11.640,27.35373
11.648,25.63001
11.656,23.94664
11.664,22.32355
11.672,20.76811
11.680,19.27712
11.688,17.83963
11.696,16.44014
11.704,15.06207
11.712,13.69087
11.720,12.31663
11.728,10.93589
11.736,9.55253
11.744,8.17761
11.752,6.82848
11.760,5.52710
11.768,4.29791
11.776,3.16556
11.784,2.15275
11.792,1.27831
11.800,0.55577
11.808,-0.00746
11.816,-0.41040
11.824,-0.65822
11.832,-0.76159
11.840,-0.73571
11.848,-0.59916
11.856,-0.37275
11.864,-0.07838
11.872,0.26200
11.880,0.62720
11.888,0.99746
11.896,1.35493
11.904,1.68386
11.912,1.97069
11.920,2.20392
11.928,2.37411
11.936,2.47374
11.944,2.49734
11.952,2.44148
11.960,2.30491
11.968,2.08855
11.976,1.79531
11.984,1.42993
11.992,0.99856
12.000,0.50836
12.008,-0.03293
12.016,-0.61739
12.024,-1.23741
12.032,-1.88604
12.040,-2.55747
12.048,-3.24737
12.056,-3.95312
12.064,-4.67397
12.072,-5.41104
12.080,-6.16707
12.088,-6.94604
12.096,-7.75256
12.104,-8.59104
12.112,-9.46476
12.120,-10.37472
12.128,-11.31865
12.136,-12.29002
12.144,-13.27756
12.152,-14.26508
12.160,-15.23198
12.168,-16.15423
12.176,-17.00598
12.184,-17.76148
12.192,-18.39719
12.200,-18.89379
12.208,-19.23792
12.216,-19.42340
12.224,-19.45185
12.232,-19.33267
12.240,-19.08245
12.248,-18.72376
12.256,-18.28353
12.264,-17.79116
12.272,-17.27661
12.280,-16.76850
12.288,-16.29252
12.296,-15.87005
12.304,-15.51721
12.312,-15.24426
12.320,-15.05526
12.328,-14.94812
12.336,-14.91488
12.344,-14.94237
12.352,-15.01314
12.360,-15.10673
12.368,-15.20121
12.376,-15.27488
12.384,-15.30808
12.392,-15.28476
12.400,-15.19384
12.408,-15.02998
12.416,-14.79384
12.424,-14.49151
12.432,-14.13326
12.440,-13.73175
12.448,-13.29968
12.456,-12.84738
12.464,-12.38051
12.472,-11.89828
12.480,-11.39237
12.488,-10.84687
12.496,-10.23919
12.504,-9.54181
12.512,-8.72486
12.520,-7.75920
12.528,-6.61967
12.536,-5.28827
12.544,-3.75690
12.552,-2.02919
12.560,-0.12138
12.568,1.93808
12.576,4.11007
12.584,6.34727
12.592,8.59725
12.600,10.80579
12.608,12.91990
12.616,14.89048
12.624,16.67428
12.632,18.23515
12.640,19.54470
12.648,20.58255
12.656,21.33618
12.664,21.80072
12.672,21.97863
12.680,21.87918
12.688,21.51785
12.696,20.91553
12.704,20.09761
12.712,19.09292
12.720,17.93258
12.728,16.64888
12.736,15.27408
12.744,13.83937
12.752,12.37390
12.760,10.90402
12.768,9.45265
12.776,8.03906
12.784,6.67872
12.792,5.38348
12.800,4.16196
12.808,3.01996
12.816,1.96104
12.824,0.98707
12.832,0.09875
12.840,-0.70396
12.848,-1.42167
12.856,-2.05535
12.864,-2.60641
12.872,-3.07661
12.880,-3.46807
12.888,-3.78308
12.896,-4.02391
12.904,-4.19263
12.912,-4.29080
12.920,-4.31940
12.928,-4.27871
12.936,-4.16849
12.944,-3.98819
12.952,-3.73739
12.960,-3.41619
12.968,-3.02564
12.976,-2.56819
12.984,-2.04801
12.992,-1.47130
13.000,-0.84633
13.008,-0.18337
13.016,0.50568
13.024,1.20777
13.032,1.90942
13.040,2.59736
13.048,3.25921
13.056,3.88402
13.064,4.46257
13.072,4.98754
13.080,5.45341
13.088,5.85622
13.096,6.19326
13.104,6.46261
13.112,6.66285
13.120,6.79288
13.128,6.85200
13.136,6.84015
13.144,6.75830
13.152,6.60882
13.160,6.39571
13.168,6.12464
13.176,5.80266
13.184,5.43787
13.192,5.03885
13.200,4.61410
13.208,4.17153
13.216,3.71791
13.224,3.25848
13.232,2.79664
13.240,2.33383
13.248,1.86955
13.256,1.40157
13.264,0.92640
13.272,0.43985
13.280,-0.06228
13.288,-0.58338
13.296,-1.12537
13.304,-1.68806
13.312,-2.26876
13.320,-2.86227
13.328,-3.46110
13.336,-4.05606
13.344,-4.63709
13.352,-5.19414
13.360,-5.71811
13.368,-6.20162
13.376,-6.63961
13.384,-7.02974
13.392,-7.37251
13.400,-7.67093
13.408,-7.92995
13.416,-8.15528
13.424,-8.35201
13.432,-8.52282
13.440,-8.66625
13.448,-8.77517
13.456,-8.83581
13.464,-8.82751
13.472,-8.72352
13.480,-8.49267
13.488,-8.10208
13.496,-7.52029
13.504,-6.72082
13.512,-5.68553
13.520,-4.40747
13.528,-2.89284
13.536,-1.16181
13.544,0.75208
13.552,2.80373
13.560,4.93937
13.568,7.10018
13.576,9.22607
13.584,11.25944
13.592,13.14833
13.600,14.84898
13.608,16.32743
13.616,17.56033
13.624,18.53502
13.632,19.24883
13.640,19.70793
13.648,19.92577
13.656,19.92136
13.664,19.71741
13.672,19.33871
13.680,18.81058
13.688,18.15767
13.696,17.40304
13.704,16.56752
13.712,15.66947
13.720,14.72468
13.728,13.74647
13.736,12.74590
13.744,11.73194
13.752,10.71169
13.760,9.69048
13.768,8.67204
13.776,7.65859
13.784,6.65108
13.792,5.64953
13.800,4.65347
13.808,3.66244
13.816,2.67649
13.824,1.69667
13.832,0.72535
13.840,-0.23349
13.848,-1.17428
13.856,-2.08994
13.864,-2.97223
13.872,-3.81216
13.880,-4.60064
13.888,-5.32906
13.896,-5.99005
13.904,-6.57797
13.912,-7.08933
13.920,-7.52294
13.928,-7.87982
13.936,-8.16301
13.944,-8.37721
13.952,-8.52845
13.960,-8.62383
13.968,-8.67114
13.976,-8.67854
13.984,-8.65417
13.992,-8.60568
14.000,-8.53979
14.008,-8.46181
14.016,-8.37537
14.024,-8.28229
14.032,-8.18262
14.040,-8.07493
14.048,-7.95676
14.056,-7.82511
14.064,-7.67700
14.072,-7.51002
14.080,-7.32282
14.088,-7.11562
14.096,-6.89065
14.104,-6.65249
14.112,-6.40826
14.120,-6.16760
14.128,-5.94250
14.136,-5.74686
14.144,-5.59593
14.152,-5.50553
14.160,-5.49111
14.168,-5.56669
14.176,-5.74366
14.184,-6.02948
14.192,-6.42657
14.200,-6.93115
14.208,-7.53269
14.216,-8.21371
14.224,-8.95036
14.232,-9.71356
14.240,-10.47084
14.248,-11.18858
14.256,-11.83465
14.264,-12.38090
14.272,-12.80545
14.280,-13.09433
14.288,-13.24232
14.296,-13.25304
14.304,-13.13823
14.312,-12.91633
14.320,-12.61064
14.328,-12.24710
14.336,-11.85200
14.344,-11.44979
14.352,-11.06122
14.360,-10.70185
14.368,-10.38118
14.376,-10.10230
14.384,-9.86224
14.392,-9.65287
14.400,-9.46224
14.408,-9.27632
14.416,-9.08079
14.424,-8.86271
14.432,-8.61191
14.440,-8.32180
14.448,-7.98952
14.456,-7.61549
14.464,-7.20240
14.472,-6.75389
14.480,-6.27302
14.488,-5.76090
14.496,-5.21555
14.504,-4.63126
14.512,-3.99845
14.520,-3.30416
14.528,-2.53310
14.536,-1.66910
14.544,-0.69690
14.552,0.39601
14.560,1.61759
14.568,2.96974
14.576,4.44714
14.584,6.03654
14.592,7.71676
14.600,9.45910
14.608,11.22849
14.616,12.98513
14.624,14.68651
14.632,16.28980
14.640,17.75427
14.648,19.04362
14.656,20.12810
14.664,20.98605
14.672,21.60484
14.680,21.98105
14.688,22.12004
14.696,22.03477
14.704,21.74442
14.712,21.27262
14.720,20.64580
14.728,19.89161
14.736,19.03763
14.744,18.11029
14.752,17.13411
14.760,16.13114
14.768,15.12052
14.776,14.11831
14.784,13.13737
14.792,12.18748
14.800,11.27548
14.808,10.40570
14.816,9.58034
14.824,8.80000
14.832,8.06420
14.840,7.37184
14.848,6.72151
14.856,6.11184
14.864,5.54153
14.872,5.00941
14.880,4.51434
14.888,4.05508
14.896,3.63026
14.904,3.23839
14.912,2.87811
14.920,2.54841
14.928,2.24887
14.936,1.97980
14.944,1.74204
14.952,1.53662
14.960,1.36411
14.968,1.22407
14.976,1.11442
14.984,1.03116
14.992,0.96839
15.000,0.91859
15.008,0.87317
15.016,0.82318
15.024,0.75999
15.032,0.67585
15.040,0.56435
15.048,0.42060
15.056,0.24127
15.064,0.02453
15.072,-0.23015
15.080,-0.52219
15.088,-0.85011
15.096,-1.21156
15.104,-1.60347
15.112,-2.02196
15.120,-2.46248
15.128,-2.91991
15.136,-3.38889
15.144,-3.86422
15.152,-4.34126
15.160,-4.81626
15.168,-5.28647
15.176,-5.74998
15.184,-6.20534
15.192,-6.65110
15.200,-7.08530
15.208,-7.50525
15.216,-7.90754
15.224,-8.28836
15.232,-8.64399
15.240,-8.97135
15.248,-9.26845
15.256,-9.53466
15.264,-9.77083
15.272,-9.97908
15.280,-10.16259
15.288,-10.32518
15.296,-10.47098
15.304,-10.60401
15.312,-10.72785
15.320,-10.84531
15.328,-10.95827
15.336,-11.06748
15.344,-11.17261
15.352,-11.27223
15.360,-11.36411
15.368,-11.44539
15.376,-11.51302
15.384,-11.56415
15.392,-11.59662
15.400,-11.60934
15.408,-11.60269
15.416,-11.57857
15.424,-11.54023
15.432,-11.49188
15.440,-11.43799
15.448,-11.38255
15.456,-11.32814
15.464,-11.27510
15.472,-11.22068
15.480,-11.15831
15.488,-11.07710
15.496,-10.96148
15.504,-10.79118
15.512,-10.54157
15.520,-10.18436
15.528,-9.68878
15.536,-9.02329
15.544,-8.15772
15.552,-7.06579
15.560,-5.72779
15.568,-4.13322
15.576,-2.28297
15.584,-0.19095
15.592,2.11524
15.600,4.59451
15.608,7.19368
15.616,9.84977
15.624,12.49317
15.632,15.05142
15.640,17.45319
15.648,19.63232
15.656,21.53140
15.664,23.10475
15.672,24.32055
15.680,25.16197
15.688,25.62730
15.696,25.72922
15.704,25.49326
15.712,24.95568
15.720,24.16080
15.728,23.15809
15.736,21.99922
15.744,20.73511
15.752,19.41323
15.760,18.07535
15.768,16.75567
15.776,15.47973
15.784,14.26392
15.792,13.11579
15.800,12.03508
15.808,11.01524
15.816,10.04545
15.824,9.11284
15.832,8.20452
15.840,7.30947
15.848,6.41984
15.856,5.53164
15.864,4.64487
15.872,3.76314
15.880,2.89285
15.888,2.04221
15.896,1.22018
15.904,0.43554
15.912,-0.30377
15.920,-0.99099
15.928,-1.62063
15.936,-2.18843
15.944,-2.69123
15.952,-3.12684
15.960,-3.49413
15.968,-3.79314
15.976,-4.02523
15.984,-4.19332
15.992,-4.30199
16.000,-4.35751
16.008,-4.36772
16.016,-4.34176
16.024,-4.28971
16.032,-4.22209
16.040,-4.14929
16.048,-4.08107
16.056,-4.02600
16.064,-3.99107
16.072,-3.98139
16.080,-4.00010
16.088,-4.04847
16.096,-4.12619
16.104,-4.23183
16.112,-4.36328
16.120,-4.51817
16.128,-4.69419
16.136,-4.88923
16.144,-5.10142
16.152,-5.32907
16.160,-5.57051
16.168,-5.82396
16.176,-6.08735
16.184,-6.35827
16.192,-6.63394
16.200,-6.91124
16.208,-7.18684
16.216,-7.45734
16.224,-7.71947
16.232,-7.97039
16.240,-8.20789
16.248,-8.43066
16.256,-8.63833
16.264,-8.83154
16.272,-9.01177
16.280,-9.18118
16.288,-9.34237
16.296,-9.49806
16.304,-9.65087
16.312,-9.80298
16.320,-9.95591
16.328,-10.11024
16.336,-10.26547
16.344,-10.41999
16.352,-10.57120
16.360,-10.71582
16.368,-10.85018
16.376,-10.97063
16.384,-11.07382
16.392,-11.15695
16.400,-11.21800
16.408,-11.25586
16.416,-11.27050
16.424,-11.26315
16.432,-11.23627
16.440,-11.19348
16.448,-11.13931
16.456,-11.07872
16.464,-11.01642
16.472,-10.95610
16.480,-10.89942
16.488,-10.84499
16.496,-10.78745
16.504,-10.71671
16.512,-10.61750
16.520,-10.46923
16.528,-10.24634
16.536,-9.91896
16.544,-9.45406
16.552,-8.81698
16.560,-7.97342
16.568,-6.89173
16.576,-5.54553
16.584,-3.91637
16.592,-1.99644
16.600,0.20907
16.608,2.68019
16.616,5.38119
16.624,8.26066
16.632,11.25284
16.640,14.28020
16.648,17.25719
16.656,20.09506
16.664,22.70728
16.672,25.01519
16.680,26.95310
16.688,28.47262
16.696,29.54547
16.704,30.16476
16.712,30.34447
16.720,30.11731
16.728,29.53126
16.736,28.64521
16.744,27.52421
16.752,26.23466
16.760,24.83994
16.768,23.39674
16.776,21.95222
16.784,20.54220
16.792,19.19049
16.800,17.90918
16.808,16.70004
16.816,15.55651
16.824,14.46616
16.832,13.41329
16.840,12.38140
16.848,11.35525
16.856,10.32258
16.864,9.27519
16.872,8.20967
16.880,7.12745
16.888,6.03452
16.896,4.94060
16.904,3.85808
16.912,2.80076
16.920,1.78258
16.928,0.81656
16.936,-0.08609
16.944,-0.91651
16.952,-1.66841
16.960,-2.33798
16.968,-2.92364
16.976,-3.42562
16.984,-3.84561
16.992,-4.18645
17.000,-4.45204
17.008,-4.64740
17.016,-4.77879
17.024,-4.85383
17.032,-4.88150
17.040,-4.87198
17.048,-4.83625
17.056,-4.78551
17.064,-4.73050
17.072,-4.68079
17.080,-4.64416
17.088,-4.62632
17.096,-4.63078
17.104,-4.65920
17.112,-4.71187
17.120,-4.78829
17.128,-4.88771
17.136,-5.00950
17.144,-5.15326
17.152,-5.31875
17.160,-5.50551
17.168,-5.71261
17.176,-5.93829
17.184,-6.17984
17.192,-6.43369
17.200,-6.69568
17.208,-6.96146
17.216,-7.22695
17.224,-7.48875
17.232,-7.74441
17.240,-7.99251
17.248,-8.23258
17.256,-8.46485
17.264,-8.68989
17.272,-8.90835
17.280,-9.12067
17.288,-9.32698
17.296,-9.52714
17.304,-9.72087
17.312,-9.90794
17.320,-10.08829
17.328,-10.26215
17.336,-10.43001
17.344,-10.59246
17.352,-10.75001
17.360,-10.90272
17.368,-11.05002
17.376,-11.19051
17.384,-11.32194
17.392,-11.44140
17.400,-11.54564
17.408,-11.63152
17.416,-11.69649
17.424,-11.73898
17.432,-11.75868
17.440,-11.75670
17.448,-11.73557
17.456,-11.69915
17.464,-11.65236
17.472,-11.60081
17.480,-11.55031
17.488,-11.50622
17.496,-11.47268
17.504,-11.45178
17.512,-11.44273
17.520,-11.44108
17.528,-11.43816
17.536,-11.42071
17.544,-11.37090
17.552,-11.26662
17.560,-11.08211
17.568,-10.78884
17.576,-10.35660
17.584,-9.75501
17.592,-8.95513
17.600,-7.93138
17.608,-6.66352
17.616,-5.13859
17.624,-3.35273
17.632,-1.31281
17.640,0.96239
17.648,3.44156
17.656,6.08101
17.664,8.82561
17.672,11.61078
17.680,14.36529
17.688,17.01488
17.696,19.48638
17.704,21.71194
17.712,23.63308
17.720,25.20404
17.728,26.39437
17.736,27.19028
17.744,27.59498
17.752,27.62766
17.760,27.32155
17.768,26.72105
17.776,25.87827
17.784,24.84921
17.792,23.68991
17.800,22.45296
17.808,21.18451
17.816,19.92217
17.824,18.69372
17.832,17.51683
17.840,16.39958
17.848,15.34177
17.856,14.33663
17.864,13.37295
17.872,12.43716
17.880,11.51536
17.888,10.59510
17.896,9.66685
17.904,8.72501
17.912,7.76848
17.920,6.80074
17.928,5.82937
17.936,4.86523
17.944,3.92135
17.952,3.01157
17.960,2.14936
17.968,1.34664
17.976,0.61307
17.984,-0.04436
17.992,-0.62140
18.000,-1.11634
18.008,-1.52974
18.016,-1.86407
18.024,-2.12351
18.032,-2.31383
18.040,-2.44225
18.048,-2.51736
18.056,-2.54894
18.064,-2.54766
18.072,-2.52477
18.080,-2.49163
18.088,-2.45930
18.096,-2.43811
18.104,-2.43722
18.112,-2.46428
18.120,-2.52503
18.128,-2.62314
18.136,-2.76002
18.144,-2.93485
18.152,-3.14480
18.160,-3.38533
18.168,-3.65068
18.176,-3.93440
18.184,-4.22984
18.192,-4.53067
18.200,-4.83122
18.208,-5.12687
18.216,-5.41435
18.224,-5.69194
18.232,-5.95960
18.240,-6.21884
18.248,-6.47248
18.256,-6.72411
18.264,-6.97745
18.272,-7.23576
18.280,-7.50123
18.288,-7.77459
18.296,-8.05493
18.304,-8.33963
18.312,-8.62465
18.320,-8.90477
18.328,-9.17418
18.336,-9.42700
18.344,-9.65798
18.352,-9.86301
18.360,-10.03966
18.368,-10.18742
18.376,-10.30772
18.384,-10.40366
18.392,-10.47966
18.400,-10.54090
18.408,-10.59279
18.416,-10.64043
18.424,-10.68816
18.432,-10.73920
18.440,-10.79540
18.448,-10.85712
18.456,-10.92314
18.464,-10.99077
18.472,-11.05606
18.480,-11.11426
18.488,-11.16039
18.496,-11.18996
18.504,-11.19964
18.512,-11.18785
18.520,-11.15502
18.528,-11.10360
18.536,-11.03768
18.544,-10.96216
18.552,-10.88165
18.560,-10.79903
18.568,-10.71399
18.576,-10.62166
18.584,-10.51151
18.592,-10.36693
18.600,-10.16525
18.608,-9.87862
18.616,-9.47547
18.624,-8.92247
18.632,-8.18678
18.640,-7.23850
18.648,-6.05298
18.656,-4.61302
18.664,-2.91072
18.672,-0.94908
18.680,1.25680
18.688,3.67894
18.696,6.27627
18.704,8.99512
18.712,11.77071
18.720,14.52964
18.728,17.19350
18.736,19.68326
18.744,21.92425
18.752,23.85095
18.760,25.41146
18.768,26.57077
18.776,27.31283
18.784,27.64084
18.792,27.57614
18.800,27.15563
18.808,26.42824
18.816,25.45080
18.824,24.28381
18.832,22.98740
18.840,21.61775
18.848,20.22425
18.856,18.84737
18.864,17.51741
18.872,16.25406
18.880,15.06675
18.888,13.95565
18.896,12.91327
18.904,11.92646
18.912,10.97869
18.920,10.05244
18.928,9.13149
18.936,8.20292
18.944,7.25861
18.952,6.29615
18.960,5.31903
18.968,4.33619
18.976,3.36087
18.984,2.40905
18.992,1.49768
19.000,0.64293
19.008,-0.14124
19.016,-0.84406
19.024,-1.45853
19.032,-1.98148
19.040,-2.41337
19.048,-2.75790
19.056,-3.02153
19.064,-3.21292
19.072,-3.34240
19.080,-3.42135
19.088,-3.46163
19.096,-3.47488
19.104,-3.47195
19.112,-3.46236
19.120,-3.45398
19.128,-3.45287
19.136,-3.46327
19.144,-3.48778
19.152,-3.52765
19.160,-3.58310
19.168,-3.65364
19.176,-3.73842
19.184,-3.83648
19.192,-3.94699
19.200,-4.06950
19.208,-4.20408
19.216,-4.35147
19.224,-4.51312
19.232,-4.69108
19.240,-4.88771
19.248,-5.10514
19.256,-5.34466
19.264,-5.60604
19.272,-5.88715
19.280,-6.18383
19.288,-6.49018
19.296,-6.79913
19.304,-7.10316
19.312,-7.39519
19.320,-7.66926
19.328,-7.92113
19.336,-8.14860
19.344,-8.35153
19.352,-8.53161
19.360,-8.69190
19.368,-8.83629
19.376,-8.96885
19.384,-9.09338
19.392,-9.21293
19.400,-9.32969
19.408,-9.44496
19.416,-9.55940
19.424,-9.67334
19.432,-9.78709
19.440,-9.90109
19.448,-10.01590
19.456,-10.13205
19.464,-10.24971
19.472,-10.36841
19.480,-10.48676
19.488,-10.60225
19.496,-10.71140
19.504,-10.81004
19.512,-10.89382
19.520,-10.95884
19.528,-11.00220
19.536,-11.02252
19.544,-11.02007
19.552,-10.99676
19.560,-10.95577
19.568,-10.90097
19.576,-10.83606
19.584,-10.76360
19.592,-10.68403
19.600,-10.59466
19.608,-10.48893
19.616,-10.35581
19.624,-10.17952
19.632,-9.93950
19.640,-9.61084
19.648,-9.16507
19.656,-8.57141
19.664,-7.79851
19.672,-6.81657
19.680,-5.59978
19.688,-4.12898
19.696,-2.39421
19.704,-0.39715
19.712,1.84708
19.720,4.30878
19.728,6.94362
19.736,9.69370
19.744,12.48994
19.752,15.25554
19.760,17.91041
19.768,20.37595
19.776,22.57992
19.784,24.46062
19.792,25.97042
19.800,27.07818
19.808,27.77049
19.816,28.05181
19.824,27.94332
19.832,27.48087
19.840,26.71197
19.848,25.69216
19.856,24.48110
19.864,23.13857
19.872,21.72092
19.880,20.27805
19.888,18.85113
19.896,17.47128
19.904,16.15896
19.912,14.92434
19.920,13.76831
19.928,12.68417
19.936,11.65979
19.944,10.67996
19.952,9.72874
19.960,8.79159
19.968,7.85705
19.976,6.91789
19.984,5.97157
19.992,5.02021
20.000,4.06993
20.008,3.12986
20.016,2.21101
20.024,1.32504
20.032,0.48323
20.040,-0.30427
20.048,-1.02893
20.056,-1.68405
20.064,-2.26476
20.072,-2.76793
20.080,-3.19207
20.088,-3.53735
20.096,-3.80561
20.104,-4.00045
20.112,-4.12726
20.120,-4.19319
20.128,-4.20705
20.136,-4.17900
20.144,-4.12022
20.152,-4.04236
20.160,-3.95700
20.168,-3.87508
20.176,-3.80639
20.184,-3.75920
20.192,-3.73998
20.200,-3.75327
20.208,-3.80171
20.216,-3.88611
20.224,-4.00560
20.232,-4.15794
20.240,-4.33971
20.248,-4.54658
20.256,-4.77363
20.264,-5.01553
20.272,-5.26677
20.280,-5.52194
20.288,-5.77592
20.296,-6.02414
20.304,-6.26287
20.312,-6.48942
20.320,-6.70230
20.328,-6.90127
20.336,-7.08735
20.344,-7.26258
20.352,-7.42985
20.360,-7.59256
20.368,-7.75420
20.376,-7.91804
20.384,-8.08671
20.392,-8.26204
20.400,-8.44484
20.408,-8.63485
20.416,-8.83078
20.424,-9.03035
20.432,-9.23055
20.440,-9.42788
20.448,-9.61869
20.456,-9.79948
20.464,-9.96728
20.472,-10.11981
20.480,-10.25563
20.488,-10.37412
20.496,-10.47534
20.504,-10.55987
20.512,-10.62859
20.520,-10.68257
20.528,-10.72300
20.536,-10.75119
20.544,-10.76862
20.552,-10.77688
20.560,-10.77770
20.568,-10.77285
20.576,-10.76406
20.584,-10.75275
20.592,-10.73978
20.600,-10.72502
20.608,-10.70688
20.616,-10.68171
20.624,-10.64322
20.632,-10.58188
20.640,-10.48450
20.648,-10.33388
20.656,-10.10876
20.664,-9.78414
20.672,-9.33195
20.680,-8.72230
20.688,-7.92527
20.696,-6.91310
20.704,-5.66279
20.712,-4.15875
20.720,-2.39543
20.728,-0.37940
20.736,1.86920
20.744,4.31616
20.752,6.91393
20.760,9.60334
20.768,12.31636
20.776,14.97967
20.784,17.51870
20.792,19.86199
20.800,21.94537
20.808,23.71567
20.816,25.13361
20.824,26.17561
20.832,26.83452
20.840,27.11916
20.848,27.05270
20.856,26.67029
20.864,26.01593
20.872,25.13905
20.880,24.09098
20.888,22.92179
20.896,21.67745
20.904,20.39771
20.912,19.11474
20.920,17.85246
20.928,16.62659
20.936,15.44531
20.944,14.31034
20.952,13.21849
20.960,12.16323
20.968,11.13648
20.976,10.13018
20.984,9.13763
20.992,8.15446
21.000,7.17915
21.008,6.21304
21.016,5.26005
21.024,4.32592
21.032,3.41745
21.040,2.54165
21.048,1.70505
21.056,0.91331
21.064,0.17097
21.072,-0.51838
21.080,-1.15194
21.088,-1.72734
21.096,-2.24245
21.104,-2.69515
21.112,-3.08344
21.120,-3.40565
21.128,-3.66095
21.136,-3.84998
21.144,-3.97547
21.152,-4.04276
21.160,-4.06002
21.168,-4.03803
21.176,-3.98959
21.184,-3.92858
21.192,-3.86875
21.200,-3.82262
21.208,-3.80045
21.216,-3.80964
21.224,-3.85448
21.232,-3.93641
21.240,-4.05451
21.248,-4.20627
21.256,-4.38824
21.264,-4.59650
21.272,-4.82696
21.280,-5.07536
21.288,-5.33721
21.296,-5.60776
21.304,-5.88193
21.312,-6.15455
21.320,-6.42056
21.328,-6.67539
21.336,-6.91542
21.344,-7.13823
21.352,-7.34288
21.360,-7.52987
21.368,-7.70099
21.376,-7.85900
21.384,-8.00721
21.392,-8.14903
21.400,-8.28764
21.408,-8.42568
21.416,-8.56516
21.424,-8.70743
21.432,-8.85329
21.440,-9.00307
21.448,-9.15677
21.456,-9.31409
21.464,-9.47439
21.472,-9.63663
21.480,-9.79933
21.488,-9.96045
21.496,-10.11748
21.504,-10.26757
21.512,-10.40768
21.520,-10.53490
21.528,-10.64674
21.536,-10.74135
21.544,-10.81771
21.552,-10.87575
21.560,-10.91631
21.568,-10.94106
21.576,-10.95236
21.584,-10.95300
21.592,-10.94602
21.600,-10.93446
21.608,-10.92115
21.616,-10.90847
21.624,-10.89814
21.632,-10.89085
21.640,-10.88598
21.648,-10.88113
21.656,-10.87161
21.664,-10.84988
21.672,-10.80507
21.680,-10.72251
21.688,-10.58347
21.696,-10.36527
21.704,-10.04171
21.712,-9.58403
21.720,-8.96233
21.728,-8.14747
21.736,-7.11323
21.744,-5.83865
21.752,-4.31023
21.760,-2.52392
21.768,-0.48658
21.776,1.78305
21.784,4.25405
21.792,6.88371
21.800,9.61852
21.808,12.39604
21.816,15.14734
21.824,17.80015
21.832,20.28258
21.840,22.52697
21.848,24.47368
21.856,26.07456
21.864,27.29561
21.872,28.11875
21.880,28.54240
21.888,28.58093
21.896,28.26306
21.904,27.62940
21.912,26.72943
21.920,25.61807
21.928,24.35224
21.936,22.98757
21.944,21.57543
21.952,20.16042
21.960,18.77848
21.968,17.45568
21.976,16.20780
21.984,15.04065
21.992,13.95123
22.000,12.92952
22.008,11.96080
22.016,11.02809
22.024,10.11470
22.032,9.20631
22.040,8.29259
22.048,7.36812
22.056,6.43261
22.064,5.49046
22.072,4.54988
22.080,3.62159
22.088,2.71762
22.096,1.84999
22.104,1.02988
22.112,0.26698
22.120,-0.43074
22.128,-1.05708
22.136,-1.60755
22.144,-2.07934
22.152,-2.47139
22.160,-2.78460
22.168,-3.02209
22.176,-3.18939
22.184,-3.29444
22.192,-3.34742
22.200,-3.36021
22.208,-3.34570
22.216,-3.31701
22.224,-3.28665
22.232,-3.26576
22.240,-3.26353
22.248,-3.28676
22.256,-3.33968
22.264,-3.42403
22.272,-3.53925
22.280,-3.68291
22.288,-3.85121
22.296,-4.03951
22.304,-4.24286
22.312,-4.45647
22.320,-4.67608
22.328,-4.89817
22.336,-5.12011
22.344,-5.34019
22.352,-5.55760
22.360,-5.77239
22.368,-5.98538
22.376,-6.19807
22.384,-6.41239
22.392,-6.63039
22.400,-6.85386
22.408,-7.08388
22.416,-7.32054
22.424,-7.56274
22.432,-7.80824
22.440,-8.05394
22.448,-8.29631
22.456,-8.53186
22.464,-8.75762
22.472,-8.97147
22.480,-9.17221
22.488,-9.35952
22.496,-9.53371
22.504,-9.69548
22.512,-9.84564
22.520,-9.98498
22.528,-10.11408
22.536,-10.23333
22.544,-10.34278
22.552,-10.44211
22.560,-10.53068
22.568,-10.60757
22.576,-10.67188
22.584,-10.72294
22.592,-10.76062
22.600,-10.78548
22.608,-10.79883
22.616,-10.80256
22.624,-10.79883
22.632,-10.78984
22.640,-10.77752
22.648,-10.76342
22.656,-10.74864
22.664,-10.73375
22.672,-10.71885
22.680,-10.70333
22.688,-10.68572
22.696,-10.66322
22.704,-10.63110
22.712,-10.58200
22.720,-10.50521
22.728,-10.38611
22.736,-10.20594
22.744,-9.94201
22.752,-9.56847
22.760,-9.05755
22.768,-8.38140
22.776,-7.51414
22.784,-6.43423
22.792,-5.12667
22.800,-3.58503
22.808,-1.81300
22.816,0.17467
22.824,2.35190
22.832,4.68175
22.840,7.11758
22.848,9.60488
22.856,12.08361
22.864,14.49098
22.872,16.76434
22.880,18.84421
22.888,20.67721
22.896,22.21874
22.904,23.43532
22.912,24.30632
22.920,24.82493
22.928,24.99830
22.936,24.84670
22.944,24.40184
22.952,23.70447
22.960,22.80141
22.968,21.74240
22.976,20.57696
22.984,19.35156
22.992,18.10716
23.000,16.87734
23.008,15.68709
23.016,14.55240
23.024,13.48056
23.032,12.47126
23.040,11.51821
23.048,10.61108
23.056,9.73761
23.064,8.88557
23.072,8.04441
23.080,7.20651
23.088,6.36791
23.096,5.52853
23.104,4.69181
23.112,3.86405
23.120,3.05337
23.128,2.26873
23.136,1.51899
23.144,0.81230
23.152,0.15576
23.160,-0.44469
23.168,-0.98423
23.176,-1.45918
23.184,-1.86697
23.192,-2.20633
23.200,-2.47744
23.208,-2.68209
23.216,-2.82381
23.224,-2.90797
23.232,-2.94179
23.240,-2.93418
23.248,-2.89555
23.256,-2.83741
23.264,-2.77182
23.272,-2.71074
23.280,-2.66527
23.288,-2.64480
23.296,-2.65634
23.304,-2.70395
23.312,-2.78861
23.320,-2.90833
23.328,-3.05867
23.336,-3.23348
23.344,-3.42576
23.352,-3.62855
23.360,-3.83565
23.368,-4.04214
23.376,-4.24463
23.384,-4.44122
23.392,-4.63128
23.400,-4.81502
23.408,-4.99313
23.416,-5.16635
23.424,-5.33535
23.432,-5.50063
23.440,-5.66260
23.448,-5.82170
23.456,-5.97847
23.464,-6.13364
23.472,-6.28810
23.480,-6.44284
23.488,-6.59881
23.496,-6.75676
23.504,-6.91708
23.512,-7.07965
23.520,-7.24391
23.528,-7.40881
23.536,-7.57296
23.544,-7.73469
23.552,-7.89215
23.560,-8.04341
23.568,-8.18654
23.576,-8.31973
23.584,-8.44133
23.592,-8.54992
23.600,-8.64437
23.608,-8.72387
23.616,-8.78809
23.624,-8.83730
23.632,-8.87250
23.640,-8.89551
23.648,-8.90892
23.656,-8.91588
23.664,-8.91985
23.672,-8.92416
23.680,-8.93170
23.688,-8.94452
23.696,-8.96354
23.704,-8.98822
23.712,-9.01635
23.720,-9.04377
23.728,-9.06411
23.736,-9.06875
23.744,-9.04665
23.752,-8.98442
23.760,-8.86648
23.768,-8.67525
23.776,-8.39151
23.784,-7.99488
23.792,-7.46447
23.800,-6.77979
23.808,-5.92193
23.816,-4.87500
23.824,-3.62775
23.832,-2.17528
23.840,-0.52073
23.848,1.32345
23.856,3.33469
23.864,5.48015
23.872,7.71747
23.880,9.99622
23.888,12.26021
23.896,14.45030
23.904,16.50748
23.912,18.37614
23.920,20.00696
23.928,21.35962
23.936,22.40480
23.944,23.12555
23.952,23.51784
23.960,23.59026
23.968,23.36305
23.976,22.86645
23.984,22.13852
23.992,21.22264
24.000,20.16477
24.008,19.01071
24.016,17.80356
24.024,16.58136
24.032,15.37533
24.040,14.20863
24.048,13.09584
24.056,12.04317
24.064,11.04945
24.072,10.10768
24.080,9.20712
24.088,8.33556
24.096,7.48148
24.104,6.63591
24.112,5.79359
24.120,4.95354
24.128,4.11889
24.136,3.29621
24.144,2.49442
24.152,1.72355
24.160,0.99353
24.168,0.31309
24.176,-0.31097
24.184,-0.87412
24.192,-1.37418
24.200,-1.81099
24.208,-2.18612
24.216,-2.50238
24.224,-2.76360
24.232,-2.97433
24.240,-3.13972
24.248,-3.26531
24.256,-3.35691
24.264,-3.42039
24.272,-3.46154
24.280,-3.48596
24.288,-3.49899
24.296,-3.50580
24.304,-3.51137
24.312,-3.52064
24.320,-3.53851
24.328,-3.56977
24.336,-3.61888
24.344,-3.68963
24.352,-3.78470
24.360,-3.90533
24.368,-4.05113
24.376,-4.22010
24.384,-4.40894
24.392,-4.61355
24.400,-4.82957
24.408,-5.05305
24.416,-5.28086
24.424,-5.51103
24.432,-5.74282
24.440,-5.97653
24.448,-6.21316
24.456,-6.45388
24.464,-6.69944
24.472,-6.94968
24.480,-7.20307
24.488,-7.45663
24.496,-7.70592
24.504,-7.94551
24.512,-8.16960
24.520,-8.37275
24.528,-8.55074
24.536,-8.70123
24.544,-8.82433
24.552,-8.92283
24.560,-9.00216
24.568,-9.06998
24.576,-9.13552
24.584,-9.20869
24.592,-9.29905
24.600,-9.41482
24.608,-9.56205
24.616,-9.74384
24.624,-9.96001
24.632,-10.20690
24.640,-10.47754
24.648,-10.76215
24.656,-11.04886
24.664,-11.32473
24.672,-11.57678
24.680,-11.79324
24.688,-11.96461
24.696,-12.08460
24.704,-12.15076
24.712,-12.16464
24.720,-12.13147
24.728,-12.05936
24.736,-11.95790
24.744,-11.83635
24.752,-11.70159
24.760,-11.55593
24.768,-11.39505
24.776,-11.20657
24.784,-10.96914
24.792,-10.65258
24.800,-10.21901
24.808,-9.62499
24.816,-8.82481
24.824,-7.77439
24.832,-6.43585
24.840,-4.78203
24.848,-2.80071
24.856,-0.49792
24.864,2.09999
24.872,4.94594
24.880,7.97352
24.888,11.10019
24.896,14.23208
24.904,17.26974
24.912,20.11452
24.920,22.67491
24.928,24.87232
24.936,26.64579
24.944,27.95538
24.952,28.78386
24.960,29.13676
24.968,29.04072
24.976,28.54048
24.984,27.69466
24.992,26.57097
25.000,25.24104
25.008,23.77551
25.016,22.23970
25.024,20.69018
25.032,19.17245
25.040,17.71980
25.048,16.35334
25.056,15.08281
25.064,13.90813
25.072,12.82136
25.080,11.80876
25.088,10.85295
25.096,9.93505
25.104,9.03664
25.112,8.14154
25.120,7.23733
25.128,6.31646
25.136,5.37690
25.144,4.42222
25.152,3.46102
25.160,2.50602
25.168,1.57263
25.176,0.67744
25.184,-0.16321
25.192,-0.93456
25.200,-1.62445
25.208,-2.22399
25.216,-2.72785
25.224,-3.13435
25.232,-3.44521
25.240,-3.66522
25.248,-3.80184
25.256,-3.86481
25.264,-3.86569
25.272,-3.81743
25.280,-3.73399
25.288,-3.62982
25.296,-3.51939
25.304,-3.41676
25.312,-3.33507
25.320,-3.28614
25.328,-3.28000
25.336,-3.32447
25.344,-3.42487
25.352,-3.58371
25.360,-3.80062
25.368,-4.07234
25.376,-4.39289
25.384,-4.75395
25.392,-5.14536
25.400,-5.55580
25.408,-5.97356
25.416,-6.38737
25.424,-6.78721
25.432,-7.16507
25.440,-7.51536
25.448,-7.83519
25.456,-8.12421
25.464,-8.38416
25.472,-8.61823
25.480,-8.83037
25.488,-9.02458
25.496,-9.20432
25.504,-9.37208
25.512,-9.52918
25.520,-9.67563
25.528,-9.81023
25.536,-9.93079
25.544,-10.03435
25.552,-10.11754
25.560,-10.17689
25.568,-10.20900
25.576,-10.21067
25.584,-10.17884
25.592,-10.11038
25.600,-10.00187
25.608,-9.84925
25.616,-9.64754
25.624,-9.39068
25.632,-9.07162
25.640,-8.68283
25.648,-8.21716
25.656,-7.66907
25.664,-7.03613
25.672,-6.32040
25.680,-5.52974
25.688,-4.67854
25.696,-3.78798
25.704,-2.88560
25.712,-2.00431
25.720,-1.18065
25.728,-0.45266
25.736,0.14262
25.744,0.57180
25.752,0.80773
25.760,0.83186
25.768,0.63641
25.776,0.22602
25.784,-0.38113
25.792,-1.15289
25.800,-2.04362
25.808,-2.99579
25.816,-3.94251
25.824,-4.81119
25.832,-5.52781
25.840,-6.02163
25.848,-6.22987
25.856,-6.10215
25.864,-5.60414
25.872,-4.72033
25.880,-3.45552
25.888,-1.83493
25.896,0.09692
25.904,2.27871
25.912,4.63577
25.920,7.08448
25.928,9.53708
25.936,11.90673
25.944,14.11240
25.952,16.08329
25.960,17.76248
25.968,19.10965
25.976,20.10260
25.984,20.73750
25.992,21.02791
26.000,21.00264
26.008,20.70282
26.016,20.17823
26.024,19.48335
26.032,18.67344
26.040,17.80092
26.048,16.91220
26.056,16.04525
26.064,15.22804
26.072,14.47779
26.080,13.80118
26.088,13.19541
26.096,12.64983
26.104,12.14811
26.112,11.67051
26.120,11.19620
26.128,10.70528
26.136,10.18041
26.144,9.60792
26.152,8.97829
26.160,8.28614
26.168,7.52975
26.176,6.71022
26.184,5.83069
26.192,4.89555
26.200,3.90994
26.208,2.87961
26.216,1.81114
26.224,0.71241
26.232,-0.40677
26.240,-1.53399
26.248,-2.65386
26.256,-3.74784
26.264,-4.79465
26.272,-5.77111
26.280,-6.65340
26.288,-7.41876
26.296,-8.04723
26.304,-8.52334
26.312,-8.83749
26.320,-8.98687
26.328,-8.97583
26.336,-8.81574
26.344,-8.52435
26.352,-8.12463
26.360,-7.64347
26.368,-7.11007
26.376,-6.55433
26.384,-6.00530
26.392,-5.48975
26.400,-5.03094
26.408,-4.64757
26.416,-4.35299
26.424,-4.15464
26.432,-4.05388
26.440,-4.04625
26.448,-4.12222
26.456,-4.26851
26.464,-4.46976
26.472,-4.71042
26.480,-4.97652
26.488,-5.25727
26.496,-5.54603
26.504,-5.84074
26.512,-6.14365
26.520,-6.46029
26.528,-6.79804
26.536,-7.16440
26.544,-7.56515
26.552,-8.00287
26.560,-8.47579
26.568,-8.97729
26.576,-9.49596
26.584,-10.01641
26.592,-10.52051
26.600,-10.98904
26.608,-11.40354
26.616,-11.74800
26.624,-12.01026
26.632,-12.18301
26.640,-12.26416
26.648,-12.25688
26.656,-12.16910
26.664,-12.01286
26.672,-11.80335
26.680,-11.55780
26.688,-11.29425
26.696,-11.03020
26.704,-10.78138
26.712,-10.56056
26.720,-10.37667
26.728,-10.23413
26.736,-10.13274
26.744,-10.06779
26.752,-10.03075
26.760,-10.01023
26.768,-9.99327
26.776,-9.96659
26.784,-9.91792
26.792,-9.83698
26.800,-9.71614
26.808,-9.55059
26.816,-9.33805
26.824,-9.07794
26.832,-8.77018
26.840,-8.41361
26.848,-8.00431
26.856,-7.53402
26.864,-6.98902
26.872,-6.34976
26.880,-5.59151
26.888,-4.68602
26.896,-3.60411
26.904,-2.31905
26.912,-0.81020
26.920,0.93334
26.928,2.90967
26.936,5.10207
26.944,7.47825
26.952,9.99112
26.960,12.58095
26.968,15.17877
26.976,17.71058
26.984,20.10215
26.992,22.28380
27.000,24.19482
27.008,25.78704
27.016,27.02726
27.024,27.89828
27.032,28.39873
27.040,28.54173
27.048,28.35271
27.056,27.86670
27.064,27.12537
27.072,26.17417
27.080,25.05958
27.088,23.82679
27.096,22.51766
27.104,21.16924
27.112,19.81260
27.120,18.47215
27.128,17.16526
27.136,15.90244
27.144,14.68784
27.152,13.52025
27.160,12.39444
27.168,11.30265
27.176,10.23620
27.184,9.18703
27.192,8.14906
27.200,7.11915
27.208,6.09778
27.216,5.08917
27.224,4.10093
27.232,3.14332
27.240,2.22819
27.248,1.36761
27.256,0.57257
27.264,-0.14826
27.272,-0.78940
27.280,-1.34896
27.288,-1.82865
27.296,-2.23337
27.304,-2.57064
27.312,-2.84987
27.320,-3.08171
27.328,-3.27738
27.336,-3.44812
27.344,-3.60469
27.352,-3.75685
27.360,-3.91303
27.368,-4.07993
27.376,-4.26227
27.384,-4.46245
27.392,-4.68038
27.400,-4.91337
27.408,-5.15626
27.416,-5.40171
27.424,-5.64094
27.432,-5.86453
27.440,-6.06352
27.448,-6.23032
27.456,-6.35952
27.464,-6.44838
27.472,-6.49692
27.480,-6.50768
27.488,-6.48523
27.496,-6.43552
27.504,-6.36506
27.512,-6.28028
27.520,-6.18689
27.528,-6.08940
27.536,-5.99085
27.544,-5.89275
27.552,-5.79526
27.560,-5.69746
27.568,-5.59787
27.576,-5.49504
27.584,-5.38800
27.592,-5.27679
27.600,-5.16262
27.608,-5.04795
27.616,-4.93626
27.624,-4.83164
27.632,-4.73823
27.640,-4.65958
27.648,-4.59806
27.656,-4.55448
27.664,-4.52791
27.672,-4.51588
27.680,-4.51497
27.688,-4.52156
27.696,-4.53282
27.704,-4.54763
27.712,-4.56733
27.720,-4.59611
27.728,-4.64100
27.736,-4.71148
27.744,-4.81863
27.752,-4.97395
27.760,-5.18798
27.768,-5.46888
27.776,-5.82109
27.784,-6.24435
27.792,-6.73321
27.800,-7.27709
27.808,-7.86102
27.816,-8.46689
27.824,-9.07510
27.832,-9.66645
27.840,-10.22392
27.848,-10.73419
27.856,-11.18870
27.864,-11.58399
27.872,-11.92120
27.880,-12.20486
27.888,-12.44081
27.896,-12.63377
27.904,-12.78470
27.912,-12.88850
27.920,-12.93226
27.928,-12.89446
27.936,-12.74527
27.944,-12.44801
27.952,-11.96179
27.960,-11.24511
27.968,-10.26011
27.976,-8.97704
27.984,-7.37841
27.992,-5.46247
28.000,-3.24563
28.008,-0.76347
28.016,1.92986
28.024,4.76372
28.032,7.65476
28.040,10.51186
28.048,13.24195
28.056,15.75630
28.064,17.97646
28.072,19.83949
28.080,21.30183
28.088,22.34167
28.096,22.95943
28.104,23.17655
28.112,23.03268
28.120,22.58158
28.128,21.88614
28.136,21.01328
28.144,20.02899
28.152,18.99418
28.160,17.96142
28.168,16.97287
28.176,16.05925
28.184,15.23983
28.192,14.52323
28.200,13.90886
28.208,13.38864
28.216,12.94898
28.224,12.57274
28.232,12.24092
28.240,11.93409
28.248,11.63338
28.256,11.32117
28.264,10.98142
28.272,10.59987
28.280,10.16413
28.288,9.66387
28.296,9.09097
28.304,8.43986
28.312,7.70784
28.320,6.89548
28.328,6.00691
28.336,5.04992
28.344,4.03597
28.352,2.97982
28.360,1.89892
28.368,0.81260
28.376,-0.25896
28.384,-1.29582
28.392,-2.27937
28.400,-3.19338
28.408,-4.02488
28.416,-4.76489
28.424,-5.40889
28.432,-5.95707
28.440,-6.41431
28.448,-6.78981
28.456,-7.09658
28.464,-7.35059
28.472,-7.56991
28.480,-7.77362
28.488,-7.98075
28.496,-8.20915
28.504,-8.47434
28.512,-8.78845
28.520,-9.15918
28.528,-9.58914
28.536,-10.07547
28.544,-10.60991
28.552,-11.17939
28.560,-11.76692
28.568,-12.35266
28.576,-12.91510
28.584,-13.43219
28.592,-13.88227
28.600,-14.24484
28.608,-14.50118
28.616,-14.63482
28.624,-14.63198
28.632,-14.48205
28.640,-14.17803
28.648,-13.71707
28.656,-13.10094
28.664,-12.33653
28.672,-11.43625
28.680,-10.41829
28.688,-9.30670
28.696,-8.13123
28.704,-6.92668
28.712,-5.73182
28.720,-4.58780
28.728,-3.53608
28.736,-2.61606
28.744,-1.86260
28.752,-1.30361
28.760,-0.95801
28.768,-0.83406
28.776,-0.92845
28.784,-1.22603
28.792,-1.70036
28.800,-2.31521
28.808,-3.02685
28.816,-3.78708
28.824,-4.54676
28.832,-5.25947
28.840,-5.88492
28.848,-6.39167
28.856,-6.75895
28.864,-6.97735
28.872,-7.04821
28.880,-6.98198
28.888,-6.79550
28.896,-6.50874
28.904,-6.14127
28.912,-5.70895
28.920,-5.22121
28.928,-4.67936
28.936,-4.07607
28.944,-3.39616
28.952,-2.61855
28.960,-1.71922
28.968,-0.67474
28.976,0.53401
28.984,1.91839
28.992,3.47925
29.000,5.20507
29.008,7.07131
29.016,9.04105
29.024,11.06669
29.032,13.09281
29.040,15.05973
29.048,16.90750
29.056,18.58002
29.064,20.02867
29.072,21.21537
29.080,22.11460
29.088,22.71426
29.096,23.01560
29.104,23.03212
29.112,22.78771
29.120,22.31427
29.128,21.64900
29.136,20.83168
29.144,19.90213
29.152,18.89809
29.160,17.85356
29.168,16.79775
29.176,15.75443
29.184,14.74168
29.192,13.77191
29.200,12.85186
29.208,11.98282
29.216,11.16094
29.224,10.37779
29.232,9.62131
29.240,8.87705
29.248,8.12979
29.256,7.36533
29.264,6.57217
29.272,5.74304
29.280,4.87588
29.288,3.97412
29.296,3.04635
29.304,2.10528
29.312,1.16622
29.320,0.24533
29.328,-0.64219
29.336,-1.48371
29.344,-2.27043
29.352,-2.99822
29.360,-3.66782
29.368,-4.28464
29.376,-4.85803
29.384,-5.40016
29.392,-5.92453
29.400,-6.44445
29.408,-6.97137
29.416,-7.51343
29.424,-8.07432
29.432,-8.65250
29.440,-9.24079
29.448,-9.82657
29.456,-10.39232
29.464,-10.91674
29.472,-11.37630
29.480,-11.74712
29.488,-12.00713
29.496,-12.13824
29.504,-12.12838
29.512,-11.97311
29.520,-11.67663
29.528,-11.25195
29.536,-10.72014
29.544,-10.10886
29.552,-9.45007
29.560,-8.77734
29.568,-8.12309
29.576,-7.51593
29.584,-6.97852
29.592,-6.52599
29.600,-6.16508
29.608,-5.89407
29.616,-5.70346
29.624,-5.57740
29.632,-5.49558
29.640,-5.43551
29.648,-5.37490
29.656,-5.29380
29.664,-5.17650
29.672,-5.01299
29.680,-4.79974
29.688,-4.54001
29.696,-4.24343
29.704,-3.92516
29.712,-3.60443
29.720,-3.30293
29.728,-3.04291
29.736,-2.84544
29.744,-2.72879
29.752,-2.70726
29.760,-2.79024
29.768,-2.98179
29.776,-3.28047
29.784,-3.67959
29.792,-4.16776
29.800,-4.72976
29.808,-5.34752
29.816,-6.00136
29.824,-6.67117
29.832,-7.33765
29.840,-7.98335
29.848,-8.59349
29.856,-9.15652
29.864,-9.66435
29.872,-10.11223
29.880,-10.49838
29.888,-10.82327
29.896,-11.08867
29.904,-11.29647
29.912,-11.44741
29.920,-11.53973
29.928,-11.56800
29.936,-11.52213
29.944,-11.38696
29.952,-11.14246
29.960,-10.76467
29.968,-10.22737
29.976,-9.50434
29.984,-8.57207
29.992,-7.41246
30.000,-6.01546
30.008,-4.38126
30.016,-2.52165
30.024,-0.46064
30.032,1.76612
30.040,4.11302
30.048,6.52721
30.056,8.95205
30.064,11.33084
30.072,13.61034
30.080,15.74367
30.088,17.69232
30.096,19.42721
30.104,20.92880
30.112,22.18650
30.120,23.19755
30.128,23.96570
30.136,24.49985
30.144,24.81288
30.152,24.92055
30.160,24.84065
30.168,24.59227
30.176,24.19507
30.184,23.66868
30.192,23.03216
30.200,22.30344
30.208,21.49894
30.216,20.63316
30.224,19.71850
30.232,18.76503
30.240,17.78046
30.248,16.77007
30.256,15.73682
30.264,14.68154
30.272,13.60336
30.280,12.50035
30.288,11.37034
30.296,10.21185
30.304,9.02501
30.312,7.81230
30.320,6.57921
30.328,5.33444
30.336,4.08987
30.344,2.86005
30.352,1.66135
30.360,0.51091
30.368,-0.57454
30.376,-1.57981
30.384,-2.49209
30.392,-3.30163
30.400,-4.00210
30.408,-4.59074
30.416,-5.06845
30.424,-5.43966
30.432,-5.71216
30.440,-5.89676
30.448,-6.00665
30.456,-6.05668
30.464,-6.06241
30.472,-6.03913
30.480,-6.00088
30.488,-5.95971
30.496,-5.92511
30.504,-5.90374
30.512,-5.89948
30.520,-5.91362
30.528,-5.94544
30.536,-5.99280
30.544,-6.05297
30.552,-6.12338
30.560,-6.20222
30.568,-6.28880
30.576,-6.38364
30.584,-6.48823
30.592,-6.60471
30.600,-6.73531
30.608,-6.88199
30.616,-7.04600
30.624,-7.22766
30.632,-7.42617
30.640,-7.63951
30.648,-7.86449
30.656,-8.09679
30.664,-8.33113
30.672,-8.56151
30.680,-8.78146
30.688,-8.98446
30.696,-9.16437
30.704,-9.31587
30.712,-9.43489
30.720,-9.51901
30.728,-9.56767
30.736,-9.58217
30.744,-9.56554
30.752,-9.52204
30.760,-9.45660
30.768,-9.37426
30.776,-9.27962
30.784,-9.17650
30.792,-9.06783
30.800,-8.95575
30.808,-8.84191
30.816,-8.72786
30.824,-8.61540
30.832,-8.50694
30.840,-8.40556
30.848,-8.31502
30.856,-8.23940
30.864,-8.18273
30.872,-8.14858
30.880,-8.13971
30.888,-8.15782
30.896,-8.20353
30.904,-8.27631
30.912,-8.37453
30.920,-8.49538
30.928,-8.63461
30.936,-8.78618
30.944,-8.94171
30.952,-9.08992
30.960,-9.21608
30.968,-9.30167
30.976,-9.32430
30.984,-9.25804
30.992,-9.07416
31.000,-8.74240
31.008,-8.23258
31.016,-7.51660
31.024,-6.57062
31.032,-5.37731
31.040,-3.92787
31.048,-2.22373
31.056,-0.27768
31.064,1.88566
31.072,4.23003
31.080,6.70844
31.088,9.26467
31.096,11.83554
31.104,14.35358
31.112,16.75036
31.120,18.96003
31.128,20.92297
31.136,22.58929
31.144,23.92163
31.152,24.89718
31.160,25.50864
31.168,25.76406
31.176,25.68555
31.184,25.30707
31.192,24.67138
31.200,23.82670
31.208,22.82316
31.216,21.70961
31.224,20.53079
31.232,19.32515
31.240,18.12334
31.248,16.94740
31.256,15.81076
31.264,14.71881
31.272,13.67009
31.280,12.65793
31.288,11.67226
31.296,10.70156
31.304,9.73467
31.312,8.76237
31.320,7.77852
31.328,6.78062
31.336,5.76994
31.344,4.75104
31.352,3.73100
31.360,2.71845
31.368,1.72272
31.376,0.75319
31.384,-0.18102
31.392,-1.07110
31.400,-1.90838
31.408,-2.68416
31.416,-3.38959
31.424,-4.01586
31.432,-4.55462
31.440,-4.99865
31.448,-5.34267
31.456,-5.58408
31.464,-5.72353
31.472,-5.76521
31.480,-5.71681
31.488,-5.58915
31.496,-5.39556
31.504,-5.15114
31.512,-4.87195
31.520,-4.57424
31.528,-4.27375
31.536,-3.98508
31.544,-3.72108
31.552,-3.49240
31.560,-3.30709
31.568,-3.17040
31.576,-3.08487
31.584,-3.05061
31.592,-3.06588
31.600,-3.12776
31.608,-3.23283
31.616,-3.37767
31.624,-3.55923
31.632,-3.77480
31.640,-4.02190
31.648,-4.29800
31.656,-4.60027
31.664,-4.92525
31.672,-5.26879
31.680,-5.62592
31.688,-5.99089
31.696,-6.35728
31.704,-6.71821
31.712,-7.06660
31.720,-7.39565
31.728,-7.69924
31.736,-7.97239
31.744,-8.21162
31.752,-8.41517
31.760,-8.58294
31.768,-8.71641
31.776,-8.81825
31.784,-8.89200
31.792,-8.94161
31.800,-8.97109
31.808,-8.98420
31.816,-8.98431
31.824,-8.97432
31.832,-8.95668
31.840,-8.93338
31.848,-8.90604
31.856,-8.87580
31.864,-8.84342
31.872,-8.80921
31.880,-8.77324
31.888,-8.73551
31.896,-8.69617
31.904,-8.65572
31.912,-8.61512
31.920,-8.57579
31.928,-8.53943
31.936,-8.50786
31.944,-8.48269
31.952,-8.46502
31.960,-8.45500
31.968,-8.45132
31.976,-8.45061
31.984,-8.44680
31.992,-8.43049
32.000,-8.38847
32.008,-8.30337
32.016,-8.15372
32.024,-7.91435
32.032,-7.55733
32.040,-7.05341
32.048,-6.37392
32.056,-5.49300
32.064,-4.39002
32.072,-3.05190
32.080,-1.47518
32.088,0.33242
32.096,2.35108
32.104,4.54876
32.112,6.88195
32.120,9.29730
32.128,11.73409
32.136,14.12729
32.144,16.41101
32.152,18.52206
32.160,20.40337
32.168,22.00699
32.176,23.29644
32.184,24.24829
32.192,24.85294
32.200,25.11449
32.208,25.04991
32.216,24.68745
32.224,24.06450
32.232,23.22486
32.240,22.21589
32.248,21.08538
32.256,19.87866
32.264,18.63607
32.272,17.39099
32.280,16.16865
32.288,14.98575
32.296,13.85085
32.304,12.76552
32.312,11.72596
32.320,10.72487
32.328,9.75336
32.336,8.80261
32.344,7.86519
32.352,6.93584
32.360,6.01196
32.368,5.09358
32.376,4.18328
32.384,3.28575
32.392,2.40745
32.400,1.55607
32.408,0.74010
32.416,-0.03165
32.424,-0.75057
32.432,-1.40873
32.440,-1.99950
32.448,-2.51805
32.456,-2.96178
32.464,-3.33066
32.472,-3.62727
32.480,-3.85665
32.488,-4.02594
32.496,-4.14386
32.504,-4.22004
32.512,-4.26441
32.520,-4.28655
32.528,-4.29526
32.536,-4.29822
32.544,-4.30182
32.552,-4.31111
32.560,-4.32984
32.568,-4.36064
32.576,-4.40522
32.584,-4.46466
32.592,-4.53967
32.600,-4.63084
32.608,-4.73880
32.616,-4.86429
32.624,-5.00808
32.632,-5.17093
32.640,-5.35345
32.648,-5.55597
32.656,-5.77860
32.664,-6.02116
32.672,-6.28328
32.680,-6.56431
32.688,-6.86330
32.696,-7.17881
32.704,-7.50871
32.712,-7.85001
32.720,-8.19879
32.728,-8.55018
32.736,-8.89858
32.744,-9.23792
32.752,-9.56220
32.760,-9.86595
32.768,-10.14474
32.776,-10.39555
32.784,-10.61690
32.792,-10.80887
32.800,-10.97285
32.808,-11.11128
32.816,-11.22729
32.824,-11.32443
32.832,-11.40642
32.840,-11.47711
32.848,-11.54044
32.856,-11.60049
32.864,-11.66144
32.872,-11.72739
32.880,-11.80212
32.888,-11.88861
32.896,-11.98856
32.904,-12.10207
32.912,-12.22737
32.920,-12.36100
32.928,-12.49811
32.936,-12.63307
32.944,-12.76002
32.952,-12.87350
32.960,-12.96881
32.968,-13.04211
32.976,-13.09012
32.984,-13.10953
32.992,-13.09618
33.000,-13.04419
33.008,-12.94518
33.016,-12.78763
33.024,-12.55652
33.032,-12.23313
33.040,-11.79514
33.048,-11.21706
33.056,-10.47101
33.064,-9.52805
33.072,-8.35998
33.080,-6.94166
33.088,-5.25368
33.096,-3.28530
33.104,-1.03715
33.112,1.47633
33.120,4.22547
33.128,7.16502
33.136,10.23521
33.144,13.36427
33.152,16.47222
33.160,19.47552
33.168,22.29222
33.176,24.84693
33.184,27.07513
33.192,28.92660
33.200,30.36753
33.208,31.38144
33.216,31.96883
33.224,32.14584
33.232,31.94211
33.240,31.39811
33.248,30.56220
33.256,29.48757
33.264,28.22915
33.272,26.84089
33.280,25.37326
33.288,23.87123
33.296,22.37271
33.304,20.90759
33.312,19.49725
33.320,18.15471
33.328,16.88521
33.336,15.68725
33.344,14.55391
33.352,13.47455
33.360,12.43657
33.368,11.42718
33.376,10.43511
33.384,9.45195
33.392,8.47313
33.400,7.49841
33.408,6.53183
33.416,5.58122
33.424,4.65719
33.432,3.77201
33.440,2.93816
33.448,2.16701
33.456,1.46772
33.464,0.84646
33.472,0.30603
33.480,-0.15392
33.488,-0.53641
33.496,-0.84630
33.504,-1.08929
33.512,-1.27112
33.520,-1.39689
33.528,-1.47075
33.536,-1.49590
33.544,-1.47491
33.552,-1.41028
33.560,-1.30516
33.568,-1.16405
33.576,-0.99349
33.584,-0.80243
33.592,-0.60238
33.600,-0.40721
33.608,-0.23260
33.616,-0.09532
33.624,-0.01232
33.632,0.00022
33.640,-0.07204
33.648,-0.24064
33.656,-0.51343
33.664,-0.89389
33.672,-1.38053
33.680,-1.96674
33.688,-2.64082
33.696,-3.38637
33.704,-4.18311
33.712,-5.00801
33.720,-5.83684
33.728,-6.64578
33.736,-7.41316
33.744,-8.12094
33.752,-8.75593
33.760,-9.31054
33.768,-9.78297
33.776,-10.17694
33.784,-10.50077
33.792,-10.76615
33.800,-10.98654
33.808,-11.17566
33.816,-11.34612
33.824,-11.50833
33.832,-11.66987
33.840,-11.83520
33.848,-12.00591
33.856,-12.18113
33.864,-12.35824
33.872,-12.53376
33.880,-12.70426
33.888,-12.86720
33.896,-13.02177
33.904,-13.16934
33.912,-13.31374
33.920,-13.46105
33.928,-13.61924
33.936,-13.79742
33.944,-14.00506
33.952,-14.25100
33.960,-14.54255
33.968,-14.88460
33.976,-15.27889
33.984,-15.72339
33.992,-16.21200
34.000,-16.73452
34.008,-17.27691
34.016,-17.82190
34.024,-18.34986
34.032,-18.83990
34.040,-19.27108
34.048,-19.62361
34.056,-19.87990
34.064,-20.02526
34.072,-20.04813
34.080,-19.93976
34.088,-19.69342
34.096,-19.30319
34.104,-18.76268
34.112,-18.06370
34.120,-17.19527
34.128,-16.14313
34.136,-14.88986
34.144,-13.41585
34.152,-11.70096
34.160,-9.72707
34.168,-7.48103
34.176,-4.95794
34.184,-2.16439
34.192,0.87892
34.200,4.13537
34.208,7.55182
34.216,11.05949
34.224,14.57628
34.232,18.01045
34.240,21.26559
34.248,24.24637
34.256,26.86477
34.264,29.04616
34.272,30.73465
34.280,31.89704
34.288,32.52512
34.296,32.63591
34.304,32.26998
34.312,31.48796
34.320,30.36545
34.328,28.98700
34.336,27.43971
34.344,25.80708
34.352,24.16362
34.360,22.57072
34.368,21.07389
34.376,19.70164
34.384,18.46585
34.392,17.36349
34.400,16.37946
34.408,15.49015
34.416,14.66728
34.424,13.88162
34.432,13.10632
34.440,12.31942
34.448,11.50550
34.456,10.65638
34.464,9.77106
34.472,8.85491
34.480,7.91846
34.488,6.97591
34.496,6.04362
34.504,5.13860
34.512,4.27718
34.520,3.47391
34.528,2.74066
34.536,2.08601
34.544,1.51488
34.552,1.02845
34.560,0.62429
34.568,0.29679
34.576,0.03768
34.584,-0.16322
34.592,-0.31730
34.600,-0.43635
34.608,-0.53194
34.616,-0.61483
34.624,-0.69464
34.632,-0.77966
34.640,-0.87679
34.648,-0.99155
34.656,-1.12811
34.664,-1.28936
34.672,-1.47681
34.680,-1.69066
34.688,-1.92978
34.696,-2.19178
34.704,-2.47319
34.712,-2.76971
34.720,-3.07653
34.728,-3.38869
34.736,-3.70141
34.744,-4.01044
34.752,-4.31228
34.760,-4.60437
34.768,-4.88526
34.776,-5.15462
34.784,-5.41325
34.792,-5.66292
34.800,-5.90601
34.808,-6.14521
34.816,-6.38300
34.824,-6.62130
34.832,-6.86111
34.840,-7.10247
34.848,-7.34442
34.856,-7.58529
34.864,-7.82303
34.872,-8.05553
34.880,-8.28097
34.888,-8.49794
34.896,-8.70557
34.904,-8.90337
34.912,-9.09117
34.920,-9.26890
34.928,-9.43649
34.936,-9.59370
34.944,-9.74006
34.952,-9.87477
34.960,-9.99669
34.968,-10.10439
34.976,-10.19619
34.984,-10.27038
34.992,-10.32538
35.000,-10.36014
35.008,-10.37437
35.016,-10.36885
35.024,-10.34564
35.032,-10.30813
35.040,-10.26083
35.048,-10.20915
35.056,-10.15885
35.064,-10.11546
35.072,-10.08366
35.080,-10.06672
35.088,-10.06605
35.096,-10.08078
35.104,-10.10751
35.112,-10.13999
35.120,-10.16894
35.128,-10.18186
35.136,-10.16299
35.144,-10.09341
35.152,-9.95138
35.160,-9.71293
35.168,-9.35272
35.176,-8.84521
35.184,-8.16610
35.192,-7.29401
35.200,-6.21223
35.208,-4.91055
35.216,-3.38696
35.224,-1.64905
35.232,0.28497
35.240,2.38590
35.248,4.61394
35.256,6.92004
35.264,9.24809
35.272,11.53784
35.280,13.72829
35.288,15.76114
35.296,17.58409
35.304,19.15370
35.312,20.43762
35.320,21.41599
35.328,22.08209
35.336,22.44201
35.344,22.51350
35.352,22.32412
35.360,21.90871
35.368,21.30655
35.376,20.55847
35.384,19.70416
35.392,18.78000
35.400,17.81743
35.408,16.84199
35.416,15.87292
35.424,14.92323
35.432,14.00006
35.440,13.10544
35.448,12.23726
35.456,11.39040
35.464,10.55802
35.472,9.73281
35.480,8.90812
35.488,8.07897
35.496,7.24274
35.504,6.39970
35.512,5.55306
35.520,4.70882
35.528,3.87532
35.536,3.06252
35.544,2.28115
35.552,1.54172
35.560,0.85359
35.568,0.22418
35.576,-0.34159
35.584,-0.84144
35.592,-1.27564
35.600,-1.64661
35.608,-1.95839
35.616,-2.21608
35.624,-2.42543
35.632,-2.59254
35.640,-2.72369
35.648,-2.82529
35.656,-2.90384
35.664,-2.96584
35.672,-3.01769
35.680,-3.06542
35.688,-3.11444
35.696,-3.16915
35.704,-3.23272
35.712,-3.30692
35.720,-3.39216
35.728,-3.48770
35.736,-3.59192
35.744,-3.70277
35.752,-3.81810
35.760,-3.93601
35.768,-4.05512
35.776,-4.17472
35.784,-4.29484
35.792,-4.41624
35.800,-4.54019
35.808,-4.66829
35.816,-4.80205
35.824,-4.94265
35.832,-5.09071
35.840,-5.24621
35.848,-5.40856
35.856,-5.57682
35.864,-5.74989
35.872,-5.92676
35.880,-6.10658
35.888,-6.28871
35.896,-6.47256
35.904,-6.65739
35.912,-6.84210
35.920,-7.02504
35.928,-7.20403
35.936,-7.37650
35.944,-7.53979
35.952,-7.69143
35.960,-7.82958
35.968,-7.95328
35.976,-8.06270
35.984,-8.15922
35.992,-8.24529
36.000,-8.32422
36.008,-8.39972
36.016,-8.47553
36.024,-8.55485
36.032,-8.63998
36.040,-8.73193
36.048,-8.83020
36.056,-8.93272
36.064,-9.03599
36.072,-9.13544
36.080,-9.22588
36.088,-9.30206
36.096,-9.35924
36.104,-9.39368
36.112,-9.40305
36.120,-9.38667
36.128,-9.34562
36.136,-9.28258
36.144,-9.20149
36.152,-9.10696
36.160,-9.00347
36.168,-8.89443
36.176,-8.78123
36.184,-8.66219
36.192,-8.53177
36.200,-8.37994
36.208,-8.19185
36.216,-7.94799
36.224,-7.62472
36.232,-7.19534
36.240,-6.63152
36.248,-5.90515
36.256,-4.99048
36.264,-3.86648
36.272,-2.51926
36.280,-0.94430
36.288,0.85165
36.296,2.84937
36.304,5.01680
36.312,7.30956
36.320,9.67270
36.328,12.04333
36.336,14.35404
36.344,16.53688
36.352,18.52747
36.360,20.26902
36.368,21.71568
36.376,22.83516
36.384,23.61022
36.392,24.03909
36.400,24.13475
36.408,23.92323
36.416,23.44108
36.424,22.73228
36.432,21.84480
36.440,20.82710
36.448,19.72498
36.456,18.57890
36.464,17.42207
36.472,16.27938
36.480,15.16716
36.488,14.09377
36.496,13.06075
36.504,12.06441
36.512,11.09772
36.520,10.15218
36.528,9.21955
36.536,8.29330
36.544,7.36960
36.552,6.44790
36.560,5.53106
36.568,4.62498
36.576,3.73795
36.584,2.87966
36.592,2.06016
36.600,1.28887
36.608,0.57377
36.616,-0.07899
36.624,-0.66530
36.632,-1.18290
36.640,-1.63108
36.648,-2.01024
36.656,-2.32160
36.664,-2.56705
36.672,-2.74912
36.680,-2.87119
36.688,-2.93769
36.696,-2.95430
36.704,-2.92801
36.712,-2.86709
36.720,-2.78076
36.728,-2.67893
36.736,-2.57171
36.744,-2.46903
36.752,-2.38015
36.760,-2.31324
36.768,-2.27496
36.776,-2.27016
36.784,-2.30165
36.792,-2.37017
36.800,-2.47450
36.808,-2.61183
36.816,-2.77821
36.824,-2.96915
36.832,-3.18014
36.840,-3.40715
36.848,-3.64685
36.856,-3.89666
36.864,-4.15455
36.872,-4.41874
36.880,-4.68737
36.888,-4.95821
36.896,-5.22853
36.904,-5.49518
36.912,-5.75486
36.920,-6.00450
36.928,-6.24172
36.936,-6.46517
36.944,-6.67477
36.952,-6.87174
36.960,-7.05852
36.968,-7.23851
36.976,-7.41577
36.984,-7.59451
36.992,-7.77858
37.000,-7.97090
37.008,-8.17293
37.016,-8.38435
37.024,-8.60287
37.032,-8.82432
37.040,-9.04292
37.048,-9.25177
37.056,-9.44350
37.064,-9.61096
37.072,-9.74793
37.080,-9.84972
37.088,-9.91363
37.096,-9.93915
37.104,-9.92799
37.112,-9.88382
37.120,-9.81187
37.128,-9.71854
37.136,-9.61090
37.144,-9.49633
37.152,-9.38218
37.160,-9.27551
37.168,-9.18279
37.176,-9.10955
37.184,-9.06002
37.192,-9.03667
37.200,-9.03977
37.208,-9.06699
37.216,-9.11296
37.224,-9.16891
37.232,-9.22239
37.240,-9.25706
37.248,-9.25270
37.256,-9.18544
37.264,-9.02838
37.272,-8.75265
37.280,-8.32874
37.288,-7.72826
37.296,-6.92587
37.304,-5.90133
37.312,-4.64147
37.320,-3.14187
37.328,-1.40811
37.336,0.54343
37.344,2.68546
37.352,4.98019
37.360,7.38044
37.368,9.83123
37.376,12.27203
37.384,14.63941
37.392,16.87023
37.400,18.90496
37.408,20.69086
37.416,22.18475
37.424,23.35518
37.432,24.18392
37.440,24.66650
37.448,24.81212
37.456,24.64251
37.464,24.19015
37.472,23.49574
37.480,22.60528
37.488,21.56687
37.496,20.42764
37.504,19.23093
37.512,18.01408
37.520,16.80684
37.528,15.63059
37.536,14.49839
37.544,13.41573
37.552,12.38181
37.560,11.39133
37.568,10.43632
37.576,9.50797
37.584,8.59819
37.592,7.70089
37.600,6.81264
37.608,5.93306
37.616,5.06465
37.624,4.21232
37.632,3.38274
37.640,2.58346
37.648,1.82211
37.656,1.10554
37.664,0.43930
37.672,-0.17275
37.680,-0.72845
37.688,-1.22713
37.696,-1.66922
37.704,-2.05590
37.712,-2.38873
37.720,-2.66948
37.728,-2.90015
37.736,-3.08311
37.744,-3.22129
37.752,-3.31834
37.760,-3.37874
37.768,-3.40770
37.776,-3.41106
37.784,-3.39504
37.792,-3.36605
37.800,-3.33046
37.808,-3.29443
37.816,-3.26378
37.824,-3.24385
37.832,-3.23936
37.840,-3.25445
37.848,-3.29262
37.856,-3.35682
37.864,-3.44947
37.872,-3.57236
37.880,-3.72651
37.888,-3.91192
37.896,-4.12722
37.904,-4.36951
37.912,-4.63422
37.920,-4.91529
37.928,-5.20562
37.936,-5.49762
37.944,-5.78396
37.952,-6.05822
37.960,-6.31554
37.968,-6.55291
37.976,-6.76924
37.984,-6.96516
37.992,-7.14257
38.000,-7.30424
38.008,-7.45343
38.016,-7.59360
38.024,-7.72826
38.032,-7.86085
38.040,-7.99452
38.048,-8.13194
38.056,-8.27497
38.064,-8.42440
38.072,-8.57977
38.080,-8.73933
38.088,-8.90012
38.096,-9.05835
38.104,-9.20979
38.112,-9.35028
38.120,-9.47617
38.128,-9.58472
38.136,-9.67431
38.144,-9.74459
38.152,-9.79647
38.160,-9.83197
38.168,-9.85402
38.176,-9.86610
38.184,-9.87185
38.192,-9.87468
38.200,-9.87733
38.208,-9.88150
38.216,-9.88763
38.224,-9.89480
38.232,-9.90086
38.240,-9.90283
38.248,-9.89723
38.256,-9.88041
38.264,-9.84875
38.272,-9.79848
38.280,-9.72525
38.288,-9.62350
38.296,-9.48561
38.304,-9.30111
38.312,-9.05605
38.320,-8.73268
38.328,-8.30966
38.336,-7.76270
38.344,-7.06585
38.352,-6.19326
38.360,-5.12143
38.368,-3.83175
38.376,-2.31312
38.384,-0.56443
38.392,1.40340
38.400,3.56621
38.408,5.88633
38.416,8.31364
38.424,10.78779
38.432,13.24155
38.440,15.60488
38.448,17.80943
38.456,19.79286
38.464,21.50271
38.472,22.89937
38.480,23.95794
38.488,24.66893
38.496,25.03772
38.504,25.08317
38.512,24.83538
38.520,24.33285
38.528,23.61948
38.536,22.74142
38.544,21.74420
38.552,20.67021
38.560,19.55661
38.568,18.43391
38.576,17.32523
38.584,16.24623
38.592,15.20567
38.600,14.20649
38.608,13.24713
38.616,12.32299
38.624,11.42777
38.632,10.55462
38.640,9.69697
38.648,8.84926
38.656,8.00732
38.664,7.16875
38.672,6.33305
38.680,5.50168
38.688,4.67796
38.696,3.86684
38.704,3.07464
38.712,2.30860
38.720,1.57651
38.728,0.88623
38.736,0.24526
38.744,-0.33972
38.752,-0.86315
38.760,-1.32099
38.768,-1.71095
38.776,-2.03280
38.784,-2.28858
38.792,-2.48269
38.800,-2.62185
38.808,-2.71480
38.816,-2.77178
38.824,-2.80374
38.832,-2.82157
38.840,-2.83519
38.848,-2.85302
38.856,-2.88153
38.864,-2.92517
38.872,-2.98658
38.880,-3.06685
38.888,-3.16599
38.896,-3.28323
38.904,-3.41727
38.912,-3.56650
38.920,-3.72910
38.928,-3.90322
38.936,-4.08704
38.944,-4.27891
38.952,-4.47739
38.960,-4.68123
38.968,-4.88933
38.976,-5.10073
38.984,-5.31450
38.992,-5.52978
39.000,-5.74578
39.008,-5.96189
39.016,-6.17779
39.024,-6.39359
39.032,-6.60980
39.040,-6.82732
39.048,-7.04729
39.056,-7.27079
39.064,-7.49854
39.072,-7.73058
39.080,-7.96593
39.088,-8.20255
39.096,-8.43734
39.104,-8.66636
39.112,-8.88526
39.120,-9.08968
39.128,-9.27574
39.136,-9.44049
39.144,-9.58217
39.152,-9.70040
39.160,-9.79620
39.168,-9.87181
39.176,-9.93045
39.184,-9.97583
39.192,-10.01177
39.200,-10.04167
39.208,-10.06816
39.216,-10.09294
39.224,-10.11665
39.232,-10.13906
39.240,-10.15927
39.248,-10.17604
39.256,-10.18822
39.264,-10.19513
39.272,-10.19683
39.280,-10.19430
39.288,-10.18929
39.296,-10.18401
39.304,-10.18057
39.312,-10.18034
39.320,-10.18324
39.328,-10.18700
39.336,-10.18658
39.344,-10.17366
39.352,-10.13633
39.360,-10.05906
39.368,-9.92289
39.376,-9.70584
39.384,-9.38361
39.392,-8.93048
39.400,-8.32046
39.408,-7.52871
39.416,-6.53314
39.424,-5.31623
39.432,-3.86700
39.440,-2.18303
39.448,-0.27236
39.456,1.84511
39.464,4.13680
39.472,6.55784
39.480,9.05248
39.488,11.55685
39.496,14.00255
39.504,16.32080
39.512,18.44666
39.520,20.32297
39.528,21.90357
39.536,23.15571
39.544,24.06138
39.552,24.61762
39.560,24.83573
39.568,24.73962
39.576,24.36348
39.584,23.74890
39.592,22.94183
39.600,21.98940
39.608,20.93706
39.616,19.82606
39.624,18.69154
39.632,17.56137
39.640,16.45573
39.648,15.38732
39.656,14.36227
39.664,13.38129
39.672,12.44112
39.680,11.53598
39.688,10.65885
39.696,9.80258
39.704,8.96069
39.712,8.12789
39.720,7.30040
39.728,6.47618
39.736,5.65496
39.744,4.83834
39.752,4.02973
39.760,3.23427
39.768,2.45861
39.776,1.71062
39.784,0.99887
39.792,0.33211
39.800,-0.28134
39.808,-0.83422
39.816,-1.32089
39.824,-1.73780
39.832,-2.08383
39.840,-2.36048
39.848,-2.57190
39.856,-2.72465
39.864,-2.82732
39.872,-2.88984
39.880,-2.92277
39.888,-2.93647
39.896,-2.94032
39.904,-2.94216
39.912,-2.94798
39.920,-2.96182
39.928,-2.98603
39.936,-3.02173
39.944,-3.06934
39.952,-3.12916
39.960,-3.20182
39.968,-3.28851
39.976,-3.39103
39.984,-3.51153
39.992,-3.65215
40.000,-3.81440
40.008,-3.99870
40.016,-4.20390
40.024,-4.42716
40.032,-4.66403
40.040,-4.90890
40.048,-5.15566
40.056,-5.39842
40.064,-5.63230
40.072,-5.85396
40.080,-6.06198
40.088,-6.25681
40.096,-6.44050
40.104,-6.61622
40.112,-6.78761
40.120,-6.95819
40.128,-7.13079
40.136,-7.30710
40.144,-7.48751
40.152,-7.67106
40.160,-7.85560
40.168,-8.03811
40.176,-8.21504
40.184,-8.38274
40.192,-8.53792
40.200,-8.67802
40.208,-8.80151
40.216,-8.90804
40.224,-8.99841
40.232,-9.07434
40.240,-9.13816
40.248,-9.19251
40.256,-9.23999
40.264,-9.28294
40.272,-9.32329
40.280,-9.36249
40.288,-9.40136
40.296,-9.44015
40.304,-9.47850
40.312,-9.51556
40.320,-9.55019
40.328,-9.58122
40.336,-9.60773
40.344,-9.62924
40.352,-9.64579
40.360,-9.65778
40.368,-9.66559
40.376,-9.66893
40.384,-9.66609
40.392,-9.65313
40.400,-9.62310
40.408,-9.56547
40.416,-9.46578
40.424,-9.30551
40.432,-9.06246
40.440,-8.71138
40.448,-8.22517
40.456,-7.57644
40.464,-6.73954
40.472,-5.69279
40.480,-4.42071
40.488,-2.91618
40.496,-1.18205
40.504,0.76780
40.512,2.90809
40.520,5.20253
40.528,7.60488
40.536,10.06071
40.544,12.50971
40.552,14.88844
40.560,17.13343
40.568,19.18436
40.576,20.98715
40.584,22.49668
40.592,23.67915
40.600,24.51375
40.608,24.99369
40.616,25.12640
40.624,24.93288
40.632,24.44616
40.640,23.70899
40.648,22.77069
40.656,21.68365
40.664,20.49954
40.672,19.26589
40.680,18.02318
40.688,16.80282
40.696,15.62616
40.704,14.50458
40.712,13.44043
40.720,12.42885
40.728,11.45998
40.736,10.52140
40.744,9.60044
40.752,8.68613
40.760,7.77076
40.768,6.85077
40.776,5.92708
40.784,5.00480
40.792,4.09251
40.800,3.20116
40.808,2.34282
40.816,1.52936
40.824,0.77136
40.832,0.07720
40.840,-0.54754
40.848,-1.10016
40.856,-1.58068
40.864,-1.99134
40.872,-2.33598
40.880,-2.61943
40.888,-2.84693
40.896,-3.02368
40.904,-3.15466
40.912,-3.24448
40.920,-3.29752
40.928,-3.31808
40.936,-3.31063
40.944,-3.28002
40.952,-3.23159
40.960,-3.17128
40.968,-3.10555
40.976,-3.04130
40.984,-2.98566
40.992,-2.94580
41.000,-2.92864
41.008,-2.94047
41.016,-2.98662
41.024,-3.07102
41.032,-3.19582
41.040,-3.36117
41.048,-3.56504
41.056,-3.80340
41.064,-4.07049
41.072,-4.35938
41.080,-4.66257
41.088,-4.97264
41.096,-5.28289
41.104,-5.58775
41.112,-5.88306
41.120,-6.16616
41.128,-6.43581
41.136,-6.69200
41.144,-6.93568
41.152,-7.16850
41.160,-7.39241
41.168,-7.60940
41.176,-7.82119
41.184,-8.02896
41.192,-8.23321
41.200,-8.43368
41.208,-8.62934
41.216,-8.81852
41.224,-8.99907
41.232,-9.16858
41.240,-9.32460
41.248,-9.46490
41.256,-9.58768
41.264,-9.69181
41.272,-9.77703
41.280,-9.84407
41.288,-9.89477
41.296,-9.93203
41.304,-9.95960
41.312,-9.98174
41.320,-10.00279
41.328,-10.02660
41.336,-10.05608
41.344,-10.09284
41.352,-10.13697
41.360,-10.18707
41.368,-10.24050
41.376,-10.29389
41.384,-10.34381
41.392,-10.38735
41.400,-10.42266
41.408,-10.44905
41.416,-10.46672
41.424,-10.47602
41.432,-10.47648
41.440,-10.46562
41.448,-10.43773
41.456,-10.38283
41.464,-10.28595
41.472,-10.12685
41.480,-9.88037
41.488,-9.51743
41.496,-9.00655
41.504,-8.31597
41.512,-7.41594
41.520,-6.28121
41.528,-4.89352
41.536,-3.24378
41.544,-1.33393
41.552,0.82180
41.560,3.19634
41.568,5.75007
41.576,8.43198
41.584,11.18182
41.592,13.93288
41.600,16.61538
41.608,19.16004
41.616,21.50153
41.624,23.58175
41.632,25.35258
41.640,26.77803
41.648,27.83572
41.656,28.51743
41.664,28.82888
41.672,28.78865
41.680,28.42643
41.688,27.78069
41.696,26.89608
41.704,25.82059
41.712,24.60279
41.720,23.28924
41.728,21.92215
41.736,20.53754
41.744,19.16387
41.752,17.82141
41.760,16.52222
41.768,15.27071
41.776,14.06488
41.784,12.89791
41.792,11.76008
41.800,10.64068
41.808,9.52973
41.816,8.41943
41.824,7.30518
41.832,6.18599
41.840,5.06463
41.848,3.94717
41.856,2.84240
41.864,1.76103
41.872,0.71503
41.880,-0.28303
41.888,-1.22042
41.896,-2.08468
41.904,-2.86421
41.912,-3.54889
41.920,-4.13098
41.928,-4.60607
41.936,-4.97393
41.944,-5.23901
41.952,-5.41045
41.960,-5.50161
41.968,-5.52902
41.976,-5.51101
41.984,-5.46610
41.992,-5.41151
42.000,-5.36187
42.008,-5.32833
42.016,-5.31817
42.024,-5.33488
42.032,-5.37877
42.040,-5.44781
42.048,-5.53862
42.056,-5.64742
42.064,-5.77077
42.072,-5.90596
42.080,-6.05117
42.088,-6.20537
42.096,-6.36798
42.104,-6.53852
42.112,-6.71629
42.120,-6.90013
42.128,-7.08846
42.136,-7.27941
42.144,-7.47110
42.152,-7.66196
42.160,-7.85106
42.168,-8.03825
42.176,-8.22428
42.184,-8.41061
42.192,-8.59914
42.200,-8.79184
42.208,-8.99032
42.216,-9.19545
42.224,-9.40709
42.232,-9.62393
42.240,-9.84347
42.248,-10.06217
42.256,-10.27575
42.264,-10.47966
42.272,-10.66958
42.280,-10.84200
42.288,-10.99469
42.296,-11.12710
42.304,-11.24046
42.312,-11.33766
42.320,-11.42278
42.328,-11.50037
42.336,-11.57450
42.344,-11.64781
42.352,-11.72066
42.360,-11.79072
42.368,-11.85301
42.376,-11.90046
42.384,-11.92488
42.392,-11.91817
42.400,-11.87338
42.408,-11.78562
42.416,-11.65260
42.424,-11.47486
42.432,-11.25552
42.440,-10.99988
42.448,-10.71458
42.456,-10.40675
42.464,-10.08276
42.472,-9.74710
42.480,-9.40105
42.488,-9.04158
42.496,-8.66054
42.504,-8.24424
42.512,-7.77349
42.520,-7.22428
42.528,-6.56895
42.536,-5.77778
42.544,-4.82098
42.552,-3.67097
42.560,-2.30478
42.568,-0.70647
42.576,1.13045
42.584,3.20100
42.592,5.48715
42.600,7.95696
42.608,10.56482
42.616,13.25289
42.624,15.95373
42.632,18.59402
42.640,21.09902
42.648,23.39730
42.656,25.42534
42.664,27.13153
42.672,28.47917
42.680,29.44818
42.688,30.03550
42.696,30.25408
42.704,30.13076
42.712,29.70323
42.720,29.01653
42.728,28.11933
42.736,27.06051
42.744,25.88610
42.752,24.63700
42.760,23.34737
42.768,22.04378
42.776,20.74510
42.784,19.46288
42.792,18.20226
42.800,16.96314
42.808,15.74162
42.816,14.53141
42.824,13.32537
42.832,12.11689
42.840,10.90112
42.848,9.67595
42.856,8.44250
42.864,7.20534
42.872,5.97210
42.880,4.75274
42.888,3.55857
42.896,2.40108
42.904,1.29092
42.912,0.23711
42.920,-0.75348
42.928,-1.67621
42.936,-2.52846
42.944,-3.30917
42.952,-4.01834
42.960,-4.65657
42.968,-5.22474
42.976,-5.72378
42.984,-6.15467
42.992,-6.51840
43.000,-6.81608
43.008,-7.04901
43.016,-7.21880
43.024,-7.32743
43.032,-7.37741
43.040,-7.37197
43.048,-7.31524
43.056,-7.21246
43.064,-7.07016
43.072,-6.89617
43.080,-6.69954
43.088,-6.49032
43.096,-6.27931
43.104,-6.07769
43.112,-5.89673
43.120,-5.74753
43.128,-5.64055
43.136,-5.58523
43.144,-5.58937
43.152,-5.65853
43.160,-5.79549
43.168,-5.99983
43.176,-6.26772
43.184,-6.59207
43.192,-6.96284
43.200,-7.36769
43.208,-7.79265
43.216,-8.22301
43.224,-8.64417
43.232,-9.04246
43.240,-9.40582
43.248,-9.72444
43.256,-9.99114
43.264,-10.20169
43.272,-10.35489
43.280,-10.45254
43.288,-10.49912
43.296,-10.50135
43.304,-10.46748
43.312,-10.40653
43.320,-10.32740
43.328,-10.23818
43.336,-10.14557
43.344,-10.05454
43.352,-9.96836
43.360,-9.88880
43.368,-9.81657
43.376,-9.75175
43.384,-9.69423
43.392,-9.64410
43.400,-9.60181
43.408,-9.56831
43.416,-9.54493
43.424,-9.53321
43.432,-9.53458
43.440,-9.54996
43.448,-9.57934
43.456,-9.62144
43.464,-9.67343
43.472,-9.73082
43.480,-9.78766
43.488,-9.83680
43.496,-9.87040
43.504,-9.88037
43.512,-9.85883
43.520,-9.79831
43.528,-9.69180
43.536,-9.53249
43.544,-9.31334
43.552,-9.02646
43.560,-8.66242
43.568,-8.20969
43.576,-7.65439
43.584,-6.98035
43.592,-6.16986
43.600,-5.20478
43.608,-4.06823
43.616,-2.74652
43.624,-1.23133
43.632,0.47826
43.640,2.37396
43.648,4.43702
43.656,6.63763
43.664,8.93522
43.672,11.27966
43.680,13.61334
43.688,15.87414
43.696,17.99896
43.704,19.92766
43.712,21.60693
43.720,22.99388
43.728,24.05885
43.736,24.78718
43.744,25.17972
43.752,25.25202
43.760,25.03236
43.768,24.55888
43.776,23.87621
43.784,23.03202
43.792,22.07355
43.800,21.04469
43.808,19.98356
43.816,18.92074
43.824,17.87832
43.832,16.86970
43.840,15.90006
43.848,14.96753
43.856,14.06479
43.864,13.18093
43.872,12.30356
43.880,11.42071
43.888,10.52261
43.896,9.60295
43.904,8.65978
43.912,7.69568
43.920,6.71750
43.928,5.73549
43.936,4.76217
43.944,3.81092
43.952,2.89473
43.960,2.02506
43.968,1.21120
43.976,0.45991
43.984,-0.22443
43.992,-0.83936
44.000,-1.38381
44.008,-1.85758
44.016,-2.26108
44.024,-2.59529
44.032,-2.86200
44.040,-3.06413
44.048,-3.20597
44.056,-3.29338
44.064,-3.33366
44.072,-3.33535
44.080,-3.30795
44.088,-3.26151
44.096,-3.20627
44.104,-3.15223
44.112,-3.10873
44.120,-3.08403
44.128,-3.08493
44.136,-3.11637
44.144,-3.18121
44.152,-3.28007
44.160,-3.41138
44.168,-3.57165
44.176,-3.75604
44.184,-3.95899
44.192,-4.17498
44.200,-4.39913
44.208,-4.62763
44.216,-4.85783
44.224,-5.08826
44.232,-5.31830
44.240,-5.54787
44.248,-5.77706
44.256,-6.00587
44.264,-6.23404
44.272,-6.46088
44.280,-6.68525
44.288,-6.90561
44.296,-7.11997
44.304,-7.32616
44.312,-7.52196
44.320,-7.70548
44.328,-7.87546
44.336,-8.03161
44.344,-8.17477
44.352,-8.30692
44.360,-8.43099
44.368,-8.55041
44.376,-8.66865
44.384,-8.78863
44.392,-8.91230
44.400,-9.04033
44.408,-9.17204
44.416,-9.30554
44.424,-9.43810
44.432,-9.56656
44.440,-9.68785
44.448,-9.79938
44.456,-9.89930
44.464,-9.98663
44.472,-10.06115
44.480,-10.12322
44.488,-10.17352
44.496,-10.21270
44.504,-10.24121
44.512,-10.25918
44.520,-10.26638
44.528,-10.26243
44.536,-10.24700
44.544,-10.22006
44.552,-10.18193
44.560,-10.13309
44.568,-10.07368
44.576,-10.00259
44.584,-9.91634
44.592,-9.80795
44.600,-9.66574
44.608,-9.47267
44.616,-9.20602
44.624,-8.83792
44.632,-8.33658
44.640,-7.66823
44.648,-6.79986
44.656,-5.70235
44.664,-4.35375
44.672,-2.74245
44.680,-0.86976
44.688,1.24825
44.696,3.58008
44.704,6.07921
44.712,8.68587
44.720,11.32990
44.728,13.93465
44.736,16.42156
44.744,18.71495
44.752,20.74670
44.760,22.46037
44.768,23.81441
44.776,24.78418
44.784,25.36268
44.792,25.56000
44.800,25.40165
44.808,24.92597
44.816,24.18079
44.824,23.21969
44.832,22.09818
44.840,20.87008
44.848,19.58442
44.856,18.28316
44.864,16.99960
44.872,15.75776
44.880,14.57251
44.888,13.45030
44.896,12.39050
44.904,11.38702
44.912,10.43018
44.920,9.50844
44.928,8.61007
44.936,7.72459
44.944,6.84391
44.952,5.96315
44.960,5.08113
44.968,4.20045
44.976,3.32714
44.984,2.47008
44.992,1.64008
45.000,0.84884
45.008,0.10796
45.016,-0.57209
45.024,-1.18272
45.032,-1.71779
45.040,-2.17395
45.048,-2.55073
45.056,-2.85039
45.064,-3.07757
45.072,-3.23885
45.080,-3.34210
45.088,-3.39583
45.096,-3.40863
45.104,-3.38870
45.112,-3.34363
45.120,-3.28044
45.128,-3.20579
45.136,-3.12630
45.144,-3.04889
45.152,-2.98080
45.160,-2.92954
45.168,-2.90238
45.176,-2.90575
45.184,-2.94444
45.192,-3.02095
45.200,-3.13506
45.208,-3.28376
45.216,-3.46154
45.224,-3.66104
45.232,-3.87395
45.240,-4.09201
45.248,-4.30791
45.256,-4.51601
45.264,-4.71291
45.272,-4.89758
45.280,-5.07128
45.288,-5.23721
45.296,-5.39993
45.304,-5.56461
45.312,-5.73628
45.320,-5.91915
45.328,-6.11598
45.336,-6.32780
45.344,-6.55365
45.352,-6.79075
45.360,-7.03475
45.368,-7.28032
45.376,-7.52177
45.384,-7.75382
45.392,-7.97223
45.400,-8.17427
45.408,-8.35884
45.416,-8.52636
45.424,-8.67834
45.432,-8.81686
45.440,-8.94406
45.448,-9.06173
45.456,-9.17118
45.464,-9.27321
45.472,-9.36827
45.480,-9.45665
45.488,-9.53857
45.496,-9.61426
45.504,-9.68384
45.512,-9.74714
45.520,-9.80360
45.528,-9.85215
45.536,-9.89132
45.544,-9.91944
45.552,-9.93500
45.560,-9.93706
45.568,-9.92549
45.576,-9.90113
45.584,-9.86560
45.592,-9.82080
45.600,-9.76824
45.608,-9.70812
45.616,-9.63842
45.624,-9.55391
45.632,-9.44528
45.640,-9.29841
45.648,-9.09388
45.656,-8.80686
45.664,-8.40759
45.672,-7.86267
45.680,-7.13712
45.688,-6.19725
45.696,-5.01408
45.704,-3.56701
45.712,-1.84713
45.720,0.14000
45.728,2.37277
45.736,4.81308
45.744,7.40751
45.752,10.08975
45.760,12.78432
45.768,15.41102
45.776,17.88993
45.784,20.14630
45.792,22.11507
45.800,23.74457
45.808,24.99920
45.816,25.86078
45.824,26.32866
45.832,26.41856
45.840,26.16049
45.848,25.59573
45.856,24.77344
45.864,23.74700
45.872,22.57049
45.880,21.29548
45.888,19.96839
45.896,18.62846
45.904,17.30656
45.912,16.02466
45.920,14.79606
45.928,13.62612
45.936,12.51355
45.944,11.45194
45.952,10.43152
45.960,9.44090
45.968,8.46880
45.976,7.50558
45.984,6.54436
45.992,5.58190
46.000,4.61879
46.008,3.65936
46.016,2.71115
46.024,1.78403
46.032,0.88934
46.040,0.03888
46.048,-0.75588
46.056,-1.48457
46.064,-2.13840
46.072,-2.71060
46.080,-3.19674
46.088,-3.59484
46.096,-3.90544
46.104,-4.13152
46.112,-4.27828
46.120,-4.35281
46.128,-4.36371
46.136,-4.32066
46.144,-4.23409
46.152,-4.11482
46.160,-3.97382
46.168,-3.82197
46.176,-3.66981
46.184,-3.52725
46.192,-3.40325
46.200,-3.30551
46.208,-3.24015
46.216,-3.21152
46.224,-3.22210
46.232,-3.27250
46.240,-3.36157
46.248,-3.48664
46.256,-3.64374
46.264,-3.82791
46.272,-4.03360
46.280,-4.25502
46.288,-4.48662
46.296,-4.72353
46.304,-4.96187
46.312,-5.19906
46.320,-5.43380
46.328,-5.66606
46.336,-5.89680
46.344,-6.12754
46.352,-6.35989
46.360,-6.59509
46.368,-6.83364
46.376,-7.07515
46.384,-7.31830
46.392,-7.56104
46.400,-7.80076
46.408,-8.03458
46.416,-8.25964
46.424,-8.47330
46.432,-8.67347
46.440,-8.85871
46.448,-9.02832
46.456,-9.18236
46.464,-9.32145
46.472,-9.44661
46.480,-9.55908
46.488,-9.66015
46.496,-9.75111
46.504,-9.83328
46.512,-9.90810
46.520,-9.97715
46.528,-10.04218
46.536,-10.10491
46.544,-10.16682
46.552,-10.22882
46.560,-10.29109
46.568,-10.35297
46.576,-10.41315
46.584,-10.46989
46.592,-10.52136
46.600,-10.56595
46.608,-10.60232
46.616,-10.62930
46.624,-10.64562
46.632,-10.64936
46.640,-10.63735
46.648,-10.60448
46.656,-10.54297
46.664,-10.44174
46.672,-10.28590
46.680,-10.05643
46.688,-9.73018
46.696,-9.28037
46.704,-8.67752
46.712,-7.89108
46.720,-6.89156
46.728,-5.65319
46.736,-4.15684
46.744,-2.39304
46.752,-0.36461
46.760,1.91130
46.768,4.40220
46.776,7.06037
46.784,9.82439
46.792,12.62197
46.800,15.37383
46.808,17.99841
46.816,20.41689
46.824,22.55816
46.832,24.36325
46.840,25.78885
46.848,26.80952
46.856,27.41855
46.864,27.62744
46.872,27.46401
46.880,26.96957
46.888,26.19518
46.896,25.19762
46.904,24.03531
46.912,22.76452
46.920,21.43622
46.928,20.09367
46.936,18.77090
46.944,17.49204
46.952,16.27148
46.960,15.11467
46.968,14.01940
46.976,12.97760
46.984,11.97723
46.992,11.00439
47.000,10.04528
47.008,9.08802
47.016,8.12405
47.024,7.14911
47.032,6.16367
47.040,5.17285
47.048,4.18580
47.056,3.21473
47.064,2.27365
47.072,1.37699
47.080,0.53825
47.088,-0.23112
47.096,-0.92247
47.104,-1.53040
47.112,-2.05275
47.120,-2.49032
47.128,-2.84640
47.136,-3.12621
47.144,-3.33625
47.152,-3.48385
47.160,-3.57663
47.168,-3.62221
47.176,-3.62799
47.184,-3.60122
47.192,-3.54913
47.200,-3.47929
47.208,-3.39981
47.216,-3.31944
47.224,-3.24743
47.232,-3.19312
47.240,-3.16531
47.248,-3.17155
47.256,-3.21741
47.264,-3.30604
47.272,-3.43796
47.280,-3.61111
47.288,-3.82121
47.296,-4.06210
47.304,-4.32633
47.312,-4.60569
47.320,-4.89185
47.328,-5.17697
47.336,-5.45430
47.344,-5.71868
47.352,-5.96685
47.360,-6.19763
47.368,-6.41175
47.376,-6.61153
47.384,-6.80033
47.392,-6.98195
47.400,-7.16001
47.408,-7.33754
47.416,-7.51670
47.424,-7.69870
47.432,-7.88392
47.440,-8.07206
47.448,-8.26232
47.456,-8.45359
47.464,-8.64463
47.472,-8.83410
47.480,-9.02065
47.488,-9.20294
47.496,-9.37969
47.504,-9.54977
47.512,-9.71229
47.520,-9.86669
47.528,-10.01281
47.536,-10.15083
47.544,-10.28118
47.552,-10.40438
47.560,-10.52083
47.568,-10.63057
47.576,-10.73312
47.584,-10.82737
47.592,-10.91163
47.600,-10.98379
47.608,-11.04163
47.616,-11.08325
47.624,-11.10746
47.632,-11.11400
47.640,-11.10369
47.648,-11.07836
47.656,-11.04057
47.664,-10.99326
47.672,-10.93913
47.680,-10.87991
47.688,-10.81548
47.696,-10.74294
47.704,-10.65569
47.712,-10.54275
47.720,-10.38829
47.728,-10.17151
47.736,-9.86697
47.744,-9.44532
47.752,-8.87467
47.760,-8.12243
47.768,-7.15763
47.776,-5.95358
47.784,-4.49070
47.792,-2.75923
47.800,-0.76175
47.808,1.48512
47.816,3.94971
47.824,6.58561
47.832,9.33311
47.840,12.12183
47.848,14.87442
47.856,17.51100
47.864,19.95388
47.872,22.13227
47.880,23.98635
47.888,25.47070
47.896,26.55650
47.904,27.23277
47.912,27.50630
47.920,27.40041
47.928,26.95270
47.936,26.21187
47.944,25.23394
47.952,24.07821
47.960,22.80326
47.968,21.46338
47.976,20.10573
47.984,18.76829
47.992,17.47881
48.000,16.25459
48.008,15.10310
48.016,14.02330
48.024,13.00734
48.032,12.04276
48.040,11.11462
48.048,10.20768
48.056,9.30823
48.064,8.40549
48.072,7.49251
48.080,6.56651
48.088,5.62881
48.096,4.68438
48.104,3.74122
48.112,2.80957
48.120,1.90114
48.128,1.02826
48.136,0.20317
48.144,-0.56272
48.152,-1.25942
48.160,-1.87882
48.168,-2.41516
48.176,-2.86525
48.184,-3.22862
48.192,-3.50753
48.200,-3.70680
48.208,-3.83361
48.216,-3.89705
48.224,-3.90774
48.232,-3.87719
48.240,-3.81724
48.248,-3.73936
48.256,-3.65409
48.264,-3.57051
48.272,-3.49594
48.280,-3.43579
48.288,-3.39363
48.296,-3.37142
48.304,-3.36988
48.312,-3.38896
48.320,-3.42825
48.328,-3.48733
48.336,-3.56602
48.344,-3.66435
48.352,-3.78244
48.360,-3.92026
48.368,-4.07722
48.376,-4.25191
48.384,-4.44187
48.392,-4.64368
48.400,-4.85324
48.408,-5.06630
48.416,-5.27910
48.424,-5.48901
48.432,-5.69494
48.440,-5.89753
48.448,-6.09891
48.456,-6.30232
48.464,-6.51147
48.472,-6.72979
48.480,-6.95985
48.488,-7.20279
48.496,-7.45802
48.504,-7.72319
48.512,-7.99436
48.520,-8.26641
48.528,-8.53364
48.536,-8.79031
48.544,-9.03121
48.552,-9.25198
48.560,-9.44936
48.568,-9.62119
48.576,-9.76637
48.584,-9.88478
48.592,-9.97721
48.600,-10.04527
48.608,-10.09134
48.616,-10.11840
48.624,-10.12993
48.632,-10.12968
48.640,-10.12146
48.648,-10.10889
48.656,-10.09509
48.664,-10.08255
48.672,-10.07297
48.680,-10.06727
48.688,-10.06565
48.696,-10.06765
48.704,-10.07220
48.712,-10.07756
48.720,-10.08117
48.728,-10.07945
48.736,-10.06743
48.744,-10.03840
48.752,-9.98356
48.760,-9.89160
48.768,-9.74845
48.776,-9.53702
48.784,-9.23728
48.792,-8.82643
48.800,-8.27962
48.808,-7.57086
48.816,-6.67461
48.824,-5.56757
48.832,-4.23102
48.840,-2.65315
48.848,-0.83153
48.856,1.22485
48.864,3.49401
48.872,5.94037
48.880,8.51508
48.888,11.15759
48.896,13.79819
48.904,16.36158
48.912,18.77110
48.920,20.95334
48.928,22.84281
48.936,24.38621
48.944,25.54585
48.952,26.30196
48.960,26.65364
48.968,26.61838
48.976,26.23018
48.984,25.53645
48.992,24.59396
49.000,23.46432
49.008,22.20935
49.016,20.88685
49.024,19.54700
49.032,18.22970
49.040,16.96316
49.048,15.76352
49.056,14.63567
49.064,13.57494
49.072,12.56942
49.080,11.60275
49.088,10.65689
49.096,9.71477
49.104,8.76241
49.112,7.79052
49.120,6.79530
49.128,5.77871
49.136,4.74796
49.144,3.71472
49.152,2.69391
49.160,1.70235
49.168,0.75747
49.176,-0.12406
49.184,-0.92749
49.192,-1.64102
49.200,-2.25664
49.208,-2.77063
49.216,-3.18379
49.224,-3.50115
49.232,-3.73151
49.240,-3.88646
49.248,-3.97938
49.256,-4.02416
49.264,-4.03404
49.272,-4.02059
49.280,-3.99295
49.288,-3.95755
49.296,-3.91807
49.304,-3.87589
49.312,-3.83069
49.320,-3.78126
49.328,-3.72634
49.336,-3.66536
49.344,-3.59913
49.352,-3.53030
49.360,-3.46370
49.368,-3.40634
49.376,-3.36715
49.384,-3.35637
49.392,-3.38467
49.400,-3.46201
49.408,-3.59654
49.416,-3.79355
49.424,-4.05473
49.432,-4.37783
49.440,-4.75666
49.448,-5.18159
49.456,-5.64027
49.464,-6.11863
49.472,-6.60199
49.480,-7.07609
49.488,-7.52808
49.496,-7.94716
49.504,-8.32507
49.512,-8.65615
49.520,-8.93729
49.528,-9.16763
49.536,-9.34823
49.544,-9.48176
49.552,-9.57215
49.560,-9.62421
49.568,-9.64334
49.576,-9.63514
49.584,-9.60508
49.592,-9.55825
49.600,-9.49913
49.608,-9.43149
49.616,-9.35840
49.624,-9.28219
49.632,-9.20452
49.640,-9.12645
49.648,-9.04857
49.656,-8.97117
49.664,-8.89454
49.672,-8.81926
49.680,-8.74645
49.688,-8.67798
49.696,-8.61641
49.704,-8.56483
49.712,-8.52650
49.720,-8.50450
49.728,-8.50129
49.736,-8.51851
49.744,-8.55685
49.752,-8.61596
49.760,-8.69440
49.768,-8.78940
49.776,-8.89644
49.784,-9.00860
49.792,-9.11586
49.800,-9.20431
49.808,-9.25553
49.816,-9.24636
49.824,-9.14903
49.832,-8.93197
49.840,-8.56121
49.848,-8.00231
49.856,-7.22274
49.864,-6.19453
49.872,-4.89700
49.880,-3.31927
49.888,-1.46249
49.896,0.65868
49.904,3.01526
49.912,5.56414
49.920,8.24929
49.928,11.00393
49.936,13.75371
49.944,16.42045
49.952,18.92646
49.960,21.19888
49.968,23.17385
49.976,24.80013
49.984,26.04187
49.992,26.88027
50.000,27.31405
50.008,27.35868
50.016,27.04445
50.024,26.41350
50.032,25.51624
50.040,24.40751
50.048,23.14274
50.056,21.77464
50.064,20.35045
50.072,18.91008
50.080,17.48512
50.088,16.09848
50.096,14.76486
50.104,13.49148
50.112,12.27932
50.120,11.12448
50.128,10.01964
50.136,8.95563
50.144,7.92289
50.152,6.91289
50.160,5.91922
50.168,4.93851
50.176,3.97084
50.184,3.01975
50.192,2.09191
50.200,1.19648
50.208,0.34418
50.216,-0.45360
50.224,-1.18584
50.232,-1.84278
50.240,-2.41672
50.248,-2.90257
50.256,-3.29813
50.264,-3.60415
50.272,-3.82400
50.280,-3.96336
50.288,-4.02970
50.296,-4.03186
50.304,-3.97964
50.312,-3.88360
50.320,-3.75481
50.328,-3.60471
50.336,-3.44480
50.344,-3.28636
50.352,-3.14003
50.360,-3.01534
50.368,-2.92031
50.376,-2.86114
50.384,-2.84205
50.392,-2.86528
50.400,-2.93131
50.408,-3.03908
50.416,-3.18631
50.424,-3.36978
50.432,-3.58553
50.440,-3.82902
50.448,-4.09522
50.456,-4.37876
50.464,-4.67403
50.472,-4.97543
50.480,-5.27763
50.488,-5.57584
50.496,-5.86604
50.504,-6.14521
50.512,-6.41139
50.520,-6.66376
50.528,-6.90258
50.536,-7.12905
50.544,-7.34505
50.552,-7.55291
50.560,-7.75499
50.568,-7.95337
50.576,-8.14949
50.584,-8.34391
50.592,-8.53621
50.600,-8.72495
50.608,-8.90784
50.616,-9.08211
50.624,-9.24488
50.632,-9.39368
50.640,-9.52686
50.648,-9.64390
50.656,-9.74554
50.664,-9.83369
50.672,-9.91123
50.680,-9.98164
50.688,-10.04863
50.696,-10.11565
50.704,-10.18545
50.712,-10.25952
50.720,-10.33782
50.728,-10.41854
50.736,-10.49829
50.744,-10.57246
50.752,-10.63589
50.760,-10.68361
50.768,-10.71158
50.776,-10.71730
50.784,-10.70012
50.792,-10.66122
50.800,-10.60322
50.808,-10.52943
50.816,-10.44277
50.824,-10.34448
50.832,-10.23271
50.840,-10.10112
50.848,-9.93777
50.856,-9.72428
50.864,-9.43574
50.872,-9.04132
50.880,-8.50564
50.888,-7.79113
50.896,-6.86098
50.904,-5.68259
50.912,-4.23112
50.920,-2.49296
50.928,-0.46850
50.936,1.82575
50.944,4.35628
50.952,7.07292
50.960,9.91061
50.968,12.79248
50.976,15.63399
50.984,18.34792
50.992,20.84972
51.000,23.06280
51.008,24.92328
51.016,26.38383
51.024,27.41618
51.032,28.01219
51.040,28.18340
51.048,27.95910
51.056,27.38325
51.064,26.51060
51.072,25.40238
51.080,24.12209
51.088,22.73144
51.096,21.28705
51.104,19.83776
51.112,18.42288
51.120,17.07130
51.128,15.80135
51.136,14.62147
51.144,13.53144
51.152,12.52408
51.160,11.58725
51.168,10.70594
51.176,9.86424
51.184,9.04712
51.192,8.24178
51.200,7.43848
51.208,6.63095
51.216,5.81633
51.224,4.99481
51.232,4.16911
51.240,3.34379
51.248,2.52465
51.256,1.71801
51.264,0.93029
51.272,0.16761
51.280,-0.56434
51.288,-1.26023
51.296,-1.91491
51.304,-2.52322
51.312,-3.07985
51.320,-3.57944
51.328,-4.01684
51.336,-4.38742
51.344,-4.68764
51.352,-4.91555
51.360,-5.07123
51.368,-5.15727
51.376,-5.17895
51.384,-5.14432
51.392,-5.06406
51.400,-4.95094
51.408,-4.81922
51.416,-4.68366
51.424,-4.55850
51.432,-4.45641
51.440,-4.38750
51.448,-4.35867
51.456,-4.37323
51.464,-4.43085
51.472,-4.52785
51.480,-4.65775
51.488,-4.81204
51.496,-4.98104
51.504,-5.15481
51.512,-5.32413
51.520,-5.48133
51.528,-5.62102
51.536,-5.74054
51.544,-5.84014
51.552,-5.92284
51.560,-5.99405
51.568,-6.06107
51.576,-6.13238
51.584,-6.21701
51.592,-6.32381
51.600,-6.46084
51.608,-6.63470
51.616,-6.85005
51.624,-7.10918
51.632,-7.41168
51.640,-7.75430
51.648,-8.13094
51.656,-8.53286
51.664,-8.94917
51.672,-9.36752
51.680,-9.77513
51.688,-10.15976
51.696,-10.51076
51.704,-10.81984
51.712,-11.08166
51.720,-11.29397
51.728,-11.45753
51.736,-11.57568
51.744,-11.65375
51.752,-11.69833
51.760,-11.71654
51.768,-11.71539
51.776,-11.70110
51.784,-11.67879
51.792,-11.65218
51.800,-11.62365
51.808,-11.59428
51.816,-11.56419
51.824,-11.53286
51.832,-11.49938
51.840,-11.46258
51.848,-11.42098
51.856,-11.37242
51.864,-11.31352
51.872,-11.23907
51.880,-11.14129
51.888,-11.00917
51.896,-10.82798
51.904,-10.57886
51.912,-10.23882
51.920,-9.78106
51.928,-9.17585
51.936,-8.39202
51.944,-7.39904
51.952,-6.16964
51.960,-4.68277
51.968,-2.92666
51.976,-0.90152
51.984,1.37825
51.992,3.88286
52.000,6.56707
52.008,9.37145
52.016,12.22502
52.024,15.04908
52.032,17.76185
52.040,20.28344
52.048,22.54065
52.056,24.47125
52.064,26.02735
52.072,27.17769
52.080,27.90876
52.088,28.22480
52.096,28.14665
52.104,27.70969
52.112,26.96099
52.120,25.95590
52.128,24.75430
52.136,23.41678
52.144,22.00104
52.152,20.55882
52.160,19.13348
52.168,17.75846
52.176,16.45663
52.184,15.24050
52.192,14.11327
52.200,13.07037
52.208,12.10151
52.216,11.19272
52.224,10.32839
52.232,9.49305
52.240,8.67278
52.248,7.85634
52.256,7.03580
52.264,6.20684
52.272,5.36866
52.280,4.52367
52.288,3.67705
52.296,2.83614
52.304,2.00992
52.312,1.20843
52.320,0.44217
52.328,-0.27851
52.336,-0.94394
52.344,-1.54564
52.352,-2.07677
52.360,-2.53252
52.368,-2.91038
52.376,-3.21031
52.384,-3.43484
52.392,-3.58882
52.400,-3.67921
52.408,-3.71465
52.416,-3.70495
52.424,-3.66067
52.432,-3.59262
52.440,-3.51144
52.448,-3.42722
52.456,-3.34910
52.464,-3.28491
52.472,-3.24075
52.480,-3.22078
52.488,-3.22707
52.496,-3.25972
52.504,-3.31727
52.512,-3.39728
52.520,-3.49703
52.528,-3.61430
52.536,-3.74791
52.544,-3.89813
52.552,-4.06683
52.560,-4.25723
52.568,-4.47354
52.576,-4.72029
52.584,-5.00156
52.592,-5.32016
52.600,-5.67689
52.608,-6.06992
52.616,-6.49452
52.624,-6.94299
52.632,-7.40494
52.640,-7.86761
52.648,-8.31632
52.656,-8.73488
52.664,-9.10600
52.672,-9.41172
52.680,-9.63399
52.688,-9.75535
52.696,-9.75994
52.704,-9.63472
52.712,-9.37089
52.720,-8.96543
52.728,-8.42257
52.736,-7.75488
52.744,-6.98401
52.752,-6.14063
52.760,-5.26367
52.768,-4.39885
52.776,-3.59633
52.784,-2.90783
52.792,-2.38331
52.800,-2.06747
52.808,-1.99647
52.816,-2.19518
52.824,-2.67522
52.832,-3.43387
52.840,-4.45418
52.848,-5.70588
52.856,-7.14718
52.864,-8.72700
52.872,-10.38742
52.880,-12.06607
52.888,-13.69826
52.896,-15.21899
52.904,-16.56462
52.912,-17.67464
52.920,-18.49339
52.928,-18.97209
52.936,-19.07093
52.944,-18.76128
52.952,-18.02768
52.960,-16.86952
52.968,-15.30202
52.976,-13.35650
52.984,-11.07965
52.992,-8.53187
53.000,-5.78468
53.008,-2.91725
53.016,-0.01231
53.024,2.84845
53.032,5.58882
53.040,8.14222
53.048,10.45485
53.056,12.48783
53.064,14.21804
53.072,15.63788
53.080,16.75383
53.088,17.58433
53.096,18.15705
53.104,18.50590
53.112,18.66811
53.120,18.68146
53.128,18.58193
53.136,18.40181
53.144,18.16834
53.152,17.90285
53.160,17.62043
53.168,17.33006
53.176,17.03512
53.184,16.73421
53.192,16.42218
53.200,16.09117
53.208,15.73175
53.216,15.33395
53.224,14.88827
53.232,14.38654
53.240,13.82267
53.248,13.19324
53.256,12.49783
53.264,11.73916
53.272,10.92293
53.280,10.05755
53.288,9.15357
53.296,8.22311
53.304,7.27911
53.312,6.33467
53.320,5.40229
53.328,4.49330
53.336,3.61735
53.344,2.78219
53.352,1.99360
53.360,1.25555
53.368,0.57049
53.376,-0.06027
53.384,-0.63621
53.392,-1.15720
53.400,-1.62333
53.408,-2.03473
53.416,-2.39155
53.424,-2.69408
53.432,-2.94285
53.440,-3.13889
53.448,-3.28395
53.456,-3.38090
53.464,-3.43394
53.472,-3.44885
53.480,-3.43292
53.488,-3.39474
53.496,-3.34358
53.504,-3.28879
53.512,-3.23904
53.520,-3.20174
53.528,-3.18250
53.536,-3.18493
53.544,-3.21043
53.552,-3.25838
53.560,-3.32630
53.568,-3.41021
53.576,-3.50514
53.584,-3.60555
53.592,-3.70590
53.600,-3.80103
53.608,-3.88668
53.616,-3.95979
53.624,-4.01890
53.632,-4.06433
53.640,-4.09829
53.648,-4.12475
53.656,-4.14923
53.664,-4.17831
53.672,-4.21911
53.680,-4.27866
53.688,-4.36331
53.696,-4.47816
53.704,-4.62663
53.712,-4.81014
53.720,-5.02805
53.728,-5.27778
53.736,-5.55505
53.744,-5.85430
53.752,-6.16916
53.760,-6.49290
53.768,-6.81897
53.776,-7.14143
53.784,-7.45533
53.792,-7.75701
53.800,-8.04412
53.808,-8.31556
53.816,-8.57117
53.824,-8.81129
53.832,-9.03647
53.840,-9.24715
53.848,-9.44357
53.856,-9.62581
53.864,-9.79397
53.872,-9.94836
53.880,-10.08957
53.888,-10.21851
53.896,-10.33624
53.904,-10.44380
53.912,-10.54197
53.920,-10.63114
53.928,-10.71129
53.936,-10.78212
53.944,-10.84333
53.952,-10.89482
53.960,-10.93688
53.968,-10.97010
53.976,-10.99499
53.984,-11.01125
53.992,-11.01662
54.000,-11.00547
54.008,-10.96733
54.016,-10.88539
54.024,-10.73536
54.032,-10.48492
54.040,-10.09391
54.048,-9.51565
54.056,-8.69934
54.064,-7.59376
54.072,-6.15191
54.080,-4.33635
54.088,-2.12472
54.096,0.48538
54.104,3.47271
54.112,6.79079
54.120,10.36861
54.128,14.11378
54.136,17.91781
54.144,21.66284
54.152,25.22914
54.160,28.50250
54.168,31.38085
54.176,33.77958
54.184,35.63521
54.192,36.90733
54.200,37.57890
54.208,37.65494
54.216,37.16013
54.224,36.13539
54.232,34.63415
54.240,32.71847
54.248,30.45538
54.256,27.91375
54.264,25.16183
54.272,22.26554
54.280,19.28773
54.288,16.28805
54.296,13.32330
54.304,10.44808
54.312,7.71534
54.320,5.17665
54.328,2.88203
54.336,0.87927
54.344,-0.78750
54.352,-2.07969
54.360,-2.96681
54.368,-3.42933
54.376,-3.46169
54.384,-3.07499
54.392,-2.29907
54.400,-1.18352
54.408,0.20267
54.416,1.77302
54.424,3.42703
54.432,5.05514
54.440,6.54469
54.448,7.78656
54.456,8.68195
54.464,9.14863
54.472,9.12625
54.480,8.58013
54.488,7.50343
54.496,5.91737
54.504,3.86974
54.512,1.43182
54.520,-1.30616
54.528,-4.24050
54.536,-7.26013
54.544,-10.25288
54.552,-13.11157
54.560,-15.73958
54.568,-18.05559
54.576,-19.99712
54.584,-21.52284
54.592,-22.61324
54.600,-23.26990
54.608,-23.51341
54.616,-23.38020
54.624,-22.91859
54.632,-22.18453
54.640,-21.23744
54.648,-20.13639
54.656,-18.93697
54.664,-17.68891
54.672,-16.43460
54.680,-15.20848
54.688,-14.03701
54.696,-12.93931
54.704,-11.92808
54.712,-11.01061
54.720,-10.18988
54.728,-9.46548
54.736,-8.83438
54.744,-8.29143
54.752,-7.82983
54.760,-7.44130
54.768,-7.11637
54.776,-6.84461
54.784,-6.61500
54.792,-6.41652
54.800,-6.23870
54.808,-6.07229
54.816,-5.90992
54.824,-5.74658
54.832,-5.58002
54.840,-5.41089
54.848,-5.24266
54.856,-5.08130
54.864,-4.93461
54.872,-4.81138
54.880,-4.72049
54.888,-4.66989
54.896,-4.66586
54.904,-4.71245
54.912,-4.81121
54.920,-4.96122
54.928,-5.15930
54.936,-5.40044
54.944,-5.67820
54.952,-5.98524
54.960,-6.31372
54.968,-6.65556
54.976,-7.00247
54.984,-7.34572
54.992,-7.67570
55.000,-7.98126
55.008,-8.24911
55.016,-8.46318
55.024,-8.60420
55.032,-8.64958
55.040,-8.57358
55.048,-8.34804
55.056,-7.94356
55.064,-7.33132
55.072,-6.48518
55.080,-5.38419
55.088,-4.01498
55.096,-2.37403
55.104,-0.46930
55.112,1.67867
55.120,4.03672
55.128,6.55984
55.136,9.19288
55.144,11.87312
55.152,14.53329
55.160,17.10513
55.168,19.52282
55.176,21.72644
55.184,23.66487
55.192,25.29820
55.200,26.59942
55.208,27.55519
55.216,28.16572
55.224,28.44385
55.232,28.41323
55.240,28.10601
55.248,27.56000
55.256,26.81579
55.264,25.91387
55.272,24.89213
55.280,23.78393
55.288,22.61688
55.296,21.41223
55.304,20.18501
55.312,18.94464
55.320,17.69598
55.328,16.44058
55.336,15.17800
55.344,13.90709
55.352,12.62706
55.360,11.33830
55.368,10.04303
55.376,8.74559
55.384,7.45255
55.392,6.17244
55.400,4.91539
55.408,3.69241
55.416,2.51470
55.424,1.39283
55.432,0.33604
55.440,-0.64824
55.448,-1.55458
55.456,-2.37954
55.464,-3.12140
55.472,-3.77986
55.480,-4.35581
55.488,-4.85097
55.496,-5.26773
55.504,-5.60895
55.512,-5.87775
55.520,-6.07741
55.528,-6.21117
55.536,-6.28217
55.544,-6.29345
55.552,-6.24803
55.560,-6.14915
55.568,-6.00061
55.576,-5.80711
55.584,-5.57460
55.592,-5.31050
55.600,-5.02379
55.608,-4.72489
55.616,-4.42533
55.624,-4.13726
55.632,-3.87285
55.640,-3.64365
55.648,-3.45996
55.656,-3.33024
55.664,-3.26072
55.672,-3.25517
55.680,-3.31484
55.688,-3.43859
55.696,-3.62316
55.704,-3.86354
55.712,-4.15332
55.720,-4.48502
55.728,-4.85030
55.736,-5.24028
55.744,-5.64573
55.752,-6.05741
55.760,-6.46638
55.768,-6.86431
55.776,-7.24377
55.784,-7.59843
55.792,-7.92315
55.800,-8.21408
55.808,-8.46859
55.816,-8.68534
55.824,-8.86409
55.832,-9.00579
55.840,-9.11247
55.848,-9.18729
55.856,-9.23445
55.864,-9.25912
55.872,-9.26720
55.880,-9.26504
55.888,-9.25908
55.896,-9.25544
55.904,-9.25963
55.912,-9.27622
55.920,-9.30863
55.928,-9.35907
55.936,-9.42850
55.944,-9.51676
55.952,-9.62263
55.960,-9.74399
55.968,-9.87788
55.976,-10.02054
55.984,-10.16750
55.992,-10.31360
56.000,-10.45311
56.008,-10.57995
56.016,-10.68788
56.024,-10.77087
56.032,-10.82334
56.040,-10.84057
56.048,-10.81882
56.056,-10.75551
56.064,-10.64913
56.072,-10.49901
56.080,-10.30486
56.088,-10.06615
56.096,-9.78133
56.104,-9.44697
56.112,-9.05694
56.120,-8.60181
56.128,-8.06849
56.136,-7.44045
56.144,-6.69851
56.152,-5.82225
56.160,-4.79196
56.168,-3.59105
56.176,-2.20852
56.184,-0.64127
56.192,1.10405
56.200,3.00992
56.208,5.04783
56.216,7.17914
56.224,9.35695
56.232,11.52866
56.240,13.63905
56.248,15.63344
56.256,17.46081
56.264,19.07661
56.272,20.44506
56.280,21.54098
56.288,22.35078
56.296,22.87288
56.304,23.11732
56.312,23.10464
56.320,22.86432
56.328,22.43254
56.336,21.84986
56.344,21.15850
56.352,20.39983
56.360,19.61185
56.368,18.82713
56.376,18.07109
56.384,17.36091
56.392,16.70489
56.400,16.10250
56.408,15.54503
56.416,15.01672
56.424,14.49649
56.432,13.95995
56.440,13.38171
56.448,12.73768
56.456,12.00722
56.464,11.17493
56.472,10.23194
56.480,9.17670
56.488,8.01519
56.496,6.76068
56.504,5.43301
56.512,4.05757
56.520,2.66402
56.528,1.28478
56.536,-0.04642
56.544,-1.29609
56.552,-2.43248
56.560,-3.42702
56.568,-4.25580
56.576,-4.90092
56.584,-5.35191
56.592,-5.60674
56.600,-5.67275
56.608,-5.56687
56.616,-5.31538
56.624,-4.95276
56.632,-4.51990
56.640,-4.06164
56.648,-3.62380
56.656,-3.24990
56.664,-2.97796
56.672,-2.83756
56.680,-2.84756
56.688,-3.01468
56.696,-3.33305
56.704,-3.78495
56.712,-4.34258
56.720,-4.97066
56.728,-5.62975
56.736,-6.27958
56.744,-6.88236
56.752,-7.40548
56.760,-7.82358
56.768,-8.11988
56.776,-8.28676
56.784,-8.32556
56.792,-8.24581
56.800,-8.06393
56.808,-7.80168
56.816,-7.48436
56.824,-7.13904
56.832,-6.79280
56.840,-6.47110
56.848,-6.19622
56.856,-5.98609
56.864,-5.85332
56.872,-5.80471
56.880,-5.84110
56.888,-5.95773
56.896,-6.14491
56.904,-6.38895
56.912,-6.67335
56.920,-6.98017
56.928,-7.29139
56.936,-7.59025
56.944,-7.86244
56.952,-8.09701
56.960,-8.28684
56.968,-8.42879
56.976,-8.52336
56.984,-8.57408
56.992,-8.58672
57.000,-8.56837
57.008,-8.52670
57.016,-8.46931
57.024,-8.40329
57.032,-8.33499
57.040,-8.26984
57.048,-8.21235
57.056,-8.16598
57.064,-8.13317
57.072,-8.11531
57.080,-8.11278
57.088,-8.12495
57.096,-8.15026
57.104,-8.18610
57.112,-8.22860
57.120,-8.27217
57.128,-8.30893
57.136,-8.32799
57.144,-8.31474
57.152,-8.25035
57.160,-8.11154
57.168,-7.87096
57.176,-7.49807
57.184,-6.96074
57.192,-6.22754
57.200,-5.27043
57.208,-4.06777
57.216,-2.60722
57.224,-0.88822
57.232,1.07619
57.240,3.25848
57.248,5.61674
57.256,8.09599
57.264,10.63044
57.272,13.14687
57.280,15.56859
57.288,17.82010
57.296,19.83168
57.304,21.54384
57.312,22.91088
57.320,23.90344
57.328,24.50972
57.336,24.73537
57.344,24.60207
57.352,24.14511
57.360,23.41004
57.368,22.44894
57.376,21.31651
57.384,20.06641
57.392,18.74804
57.400,17.40417
57.408,16.06937
57.416,14.76934
57.424,13.52108
57.432,12.33368
57.440,11.20960
57.448,10.14620
57.456,9.13742
57.464,8.17531
57.472,7.25135
57.480,6.35753
57.488,5.48696
57.496,4.63427
57.504,3.79576
57.512,2.96947
57.520,2.15522
57.528,1.35477
57.536,0.57191
57.544,-0.18748
57.552,-0.91561
57.560,-1.60317
57.568,-2.24005
57.576,-2.81621
57.584,-3.32273
57.592,-3.75281
57.600,-4.10258
57.608,-4.37165
57.616,-4.56325
57.624,-4.68396
57.632,-4.74302
57.640,-4.75146
57.648,-4.72107
57.656,-4.66335
57.664,-4.58872
57.672,-4.50582
57.680,-4.42124
57.688,-4.33937
57.696,-4.26254
57.704,-4.19136
57.712,-4.12523
57.720,-4.06285
57.728,-4.00292
57.736,-3.94460
57.744,-3.88789
57.752,-3.83385
57.760,-3.78455
57.768,-3.74302
57.776,-3.71302
57.784,-3.69885
57.792,-3.70502
57.800,-3.73598
57.808,-3.79574
57.816,-3.88741
57.824,-4.01284
57.832,-4.17219
57.840,-4.36377
57.848,-4.58393
57.856,-4.82719
57.864,-5.08658
57.872,-5.35404
57.880,-5.62098
57.888,-5.87885
57.896,-6.11975
57.904,-6.33694
57.912,-6.52532
57.920,-6.68172
57.928,-6.80512
57.936,-6.89670
57.944,-6.95978
57.952,-6.99967
57.960,-7.02331
57.968,-7.03886
57.976,-7.05509
57.984,-7.08067
57.992,-7.12339
58.000,-7.18938
58.008,-7.28242
58.016,-7.40336
58.024,-7.54981
58.032,-7.71621
58.040,-7.89416
58.048,-8.07316
58.056,-8.24160
58.064,-8.38801
58.072,-8.50237
58.080,-8.57725
58.088,-8.60885
58.096,-8.59740
58.104,-8.54725
58.112,-8.46634
58.120,-8.36519
58.128,-8.25567
58.136,-8.14941
58.144,-8.05626
58.152,-7.98285
58.160,-7.93136
58.168,-7.89859
58.176,-7.87552
58.184,-7.84727
58.192,-7.79346
58.200,-7.68898
58.208,-7.50505
58.216,-7.21056
58.224,-6.77361
58.232,-6.16336
58.240,-5.35190
58.248,-4.31650
58.256,-3.04174
58.264,-1.52168
58.272,0.23825
58.280,2.21986
58.288,4.39152
58.296,6.70841
58.304,9.11390
58.312,11.54193
58.320,13.92048
58.328,16.17580
58.336,18.23706
58.344,20.04098
58.352,21.53585
58.360,22.68478
58.368,23.46758
58.376,23.88139
58.384,23.93992
58.392,23.67153
58.400,23.11645
58.408,22.32344
58.416,21.34611
58.424,20.23909
58.432,19.05448
58.440,17.83870
58.448,16.63002
58.456,15.45707
58.464,14.33822
58.472,13.28204
58.480,12.28857
58.488,11.35138
58.496,10.45997
58.504,9.60250
58.512,8.76824
58.520,7.94979
58.528,7.14467
58.536,6.35610
58.544,5.59308
58.552,4.86961
58.560,4.20330
58.568,3.61340
58.576,3.11853
58.584,2.73421
58.592,2.47055
58.600,2.33034
58.608,2.30760
58.616,2.38703
58.624,2.54422
58.632,2.74679
58.640,2.95629
58.648,3.13080
58.656,3.22798
58.664,3.20840
58.672,3.03861
58.680,2.69385
58.688,2.16004
58.696,1.43499
58.704,0.52864
58.712,-0.53770
58.720,-1.73294
58.728,-3.01863
58.736,-4.35186
58.744,-5.68848
58.752,-6.98620
58.760,-8.20733
58.768,-9.32086
58.776,-10.30363
58.784,-11.14066
58.792,-11.82473
58.800,-12.35531
58.808,-12.73717
58.816,-12.97889
58.824,-13.09153
58.832,-13.08751
58.840,-12.97988
58.848,-12.78190
58.856,-12.50692
58.864,-12.16837
58.872,-11.77982
58.880,-11.35490
58.888,-10.90723
58.896,-10.45014
58.904,-9.99633
58.912,-9.55754
58.920,-9.14408
58.928,-8.76454
58.936,-8.42540
58.944,-8.13093
58.952,-7.88299
58.960,-7.68113
58.968,-7.52281
58.976,-7.40381
58.984,-7.31872
58.992,-7.26156
59.000,-7.22630
59.008,-7.20732
59.016,-7.19977
59.024,-7.19972
59.032,-7.20426
59.040,-7.21144
59.048,-7.22021
59.056,-7.23022
59.064,-7.24185
59.072,-7.25600
59.080,-7.27406
59.088,-7.29763
59.096,-7.32830
59.104,-7.36733
59.112,-7.41544
59.120,-7.47259
59.128,-7.53796
59.136,-7.61009
59.144,-7.68698
59.152,-7.76636
59.160,-7.84584
59.168,-7.92296
59.176,-7.99499
59.184,-8.05860
59.192,-8.10926
59.200,-8.14051
59.208,-8.14315
59.216,-8.10449
59.224,-8.00779
59.232,-7.83206
59.240,-7.55225
59.248,-7.13992
59.256,-6.56452
59.264,-5.79519
59.272,-4.80317
59.280,-3.56455
59.288,-2.06328
59.296,-0.29397
59.304,1.73581
59.312,4.00410
59.320,6.47405
59.328,9.09468
59.336,11.80260
59.344,14.52495
59.352,17.18312
59.360,19.69718
59.368,21.99060
59.376,23.99489
59.384,25.65374
59.392,26.92622
59.400,27.78888
59.408,28.23648
59.416,28.28136
59.424,27.95156
59.432,27.28790
59.440,26.34047
59.448,25.16473
59.456,23.81768
59.464,22.35447
59.472,20.82543
59.480,19.27402
59.488,17.73544
59.496,16.23606
59.504,14.79359
59.512,13.41790
59.520,12.11226
59.528,10.87483
59.536,9.70032
59.544,8.58147
59.552,7.51047
59.560,6.47999
59.568,5.48413
59.576,4.51896
59.584,3.58292
59.592,2.67683
59.600,1.80373
59.608,0.96829
59.616,0.17617
59.624,-0.56683
59.632,-1.25549
59.640,-1.88571
59.648,-2.45483
59.656,-2.96165
59.664,-3.40624
59.672,-3.78955
59.680,-4.11316
59.688,-4.37898
59.696,-4.58920
59.704,-4.74640
59.712,-4.85364
59.720,-4.91465
59.728,-4.93385
59.736,-4.91638
59.744,-4.86795
59.752,-4.79474
59.760,-4.70322
59.768,-4.60005
59.776,-4.49202
59.784,-4.38595
59.792,-4.28874
59.800,-4.20714
59.808,-4.14755
59.816,-4.11573
59.824,-4.11636
59.832,-4.15265
59.840,-4.22607
59.848,-4.33619
59.856,-4.48085
59.864,-4.65651
59.872,-4.85865
59.880,-5.08225
59.888,-5.32210
59.896,-5.57303
59.904,-5.83009
59.912,-6.08869
59.920,-6.34476
59.928,-6.59494
59.936,-6.83665
59.944,-7.06816
59.952,-7.28857
59.960,-7.49761
59.968,-7.69546
59.976,-7.88255
59.984,-8.05937
59.992,-8.22641
