time_s,ppg
0.000,-7.48117
0.008,-7.74292
0.016,-7.96708
0.024,-8.15542
0.032,-8.31229
0.040,-8.44344
0.048,-8.55486
0.056,-8.65178
0.064,-8.73807
0.072,-8.81600
0.080,-8.88643
0.088,-8.94917
0.096,-9.00345
0.104,-9.04825
0.112,-9.08263
0.120,-9.10589
0.128,-9.11770
0.136,-9.11839
0.144,-9.10919
0.152,-9.09250
0.160,-9.07193
0.168,-9.05216
0.176,-9.03830
0.184,-9.03505
0.192,-9.04550
0.200,-9.06986
0.208,-9.10420
0.216,-9.13927
0.224,-9.15961
0.232,-9.14318
0.240,-9.06144
0.248,-8.88025
0.256,-8.56153
0.264,-8.06557
0.272,-7.35396
0.280,-6.39289
0.288,-5.15648
0.296,-3.62997
0.304,-1.81230
0.312,0.28218
0.320,2.62310
0.328,5.16472
0.336,7.84780
0.344,10.60245
0.352,13.35178
0.360,16.01595
0.368,18.51612
0.376,20.77832
0.384,22.73681
0.392,24.33676
0.400,25.53642
0.408,26.30845
0.416,26.64058
0.424,26.53549
0.432,26.01008
0.440,25.09403
0.448,23.82780
0.456,22.26029
0.464,20.44624
0.472,18.44362
0.480,16.31112
0.488,14.10597
0.496,11.88200
0.504,9.68815
0.512,7.56737
0.520,5.55587
0.528,3.68286
0.536,1.97053
0.544,0.43441
0.552,-0.91602
0.560,-2.07666
0.568,-3.04801
0.576,-3.83452
0.584,-4.44403
0.592,-4.88748
0.600,-5.17865
0.608,-5.33425
0.616,-5.37392
0.624,-5.32023
0.632,-5.19837
0.640,-5.03543
0.648,-4.85913
0.656,-4.69622
0.664,-4.57069
0.672,-4.50207
0.680,-4.50421
0.688,-4.58458
0.696,-4.74412
0.704,-4.97780
0.712,-5.27547
0.720,-5.62322
0.728,-6.00473
0.736,-6.40282
0.744,-6.80071
0.752,-7.18320
0.760,-7.53746
0.768,-7.85355
0.776,-8.12473
0.784,-8.34746
0.792,-8.52137
0.800,-8.64900
0.808,-8.73534
0.816,-8.78732
0.824,-8.81302
0.832,-8.82091
0.840,-8.81912
0.848,-8.81476
0.856,-8.81345
0.864,-8.81904
0.872,-8.83350
0.880,-8.85705
0.888,-8.88855
0.896,-8.92591
0.904,-8.96674
0.912,-9.00883
0.920,-9.05056
0.928,-9.09099
0.936,-9.12960
0.944,-9.16577
0.952,-9.19804
0.960,-9.22314
0.968,-9.23523
0.976,-9.22501
0.984,-9.17922
0.992,-9.08024
1.000,-8.90609
1.008,-8.63085
1.016,-8.22542
1.024,-7.65885
1.032,-6.90013
1.040,-5.92043
1.048,-4.69572
1.056,-3.20969
1.064,-1.45650
1.072,0.55678
1.080,2.80851
1.088,5.26189
1.096,7.86544
1.104,10.55487
1.112,13.25593
1.120,15.88833
1.128,18.37010
1.136,20.62221
1.144,22.57291
1.152,24.16157
1.160,25.34165
1.168,26.08278
1.176,26.37171
1.184,26.21221
1.192,25.62401
1.200,24.64080
1.208,23.30761
1.216,21.67767
1.224,19.80925
1.232,17.76260
1.240,15.59723
1.248,13.36991
1.256,11.13305
1.264,8.93380
1.272,6.81344
1.280,4.80713
1.288,2.94378
1.296,1.24610
1.304,-0.26931
1.312,-1.59171
1.320,-2.71597
1.328,-3.64222
1.336,-4.37554
1.344,-4.92559
1.352,-5.30634
1.360,-5.53568
1.368,-5.63500
1.376,-5.62853
1.384,-5.54251
1.392,-5.40421
1.400,-5.24082
1.408,-5.07828
1.416,-4.94009
1.424,-4.84620
1.432,-4.81199
1.440,-4.84741
1.448,-4.95658
1.456,-5.13766
1.464,-5.38336
1.472,-5.68195
1.480,-6.01856
1.488,-6.37682
1.496,-6.74049
1.504,-7.09487
1.512,-7.42790
1.520,-7.73072
1.528,-7.99779
1.536,-8.22662
1.544,-8.41722
1.552,-8.57142
1.560,-8.69214
1.568,-8.78290
1.576,-8.84736
1.584,-8.88918
1.592,-8.91203
1.600,-8.91959
1.608,-8.91574
1.616,-8.90460
1.624,-8.89053
1.632,-8.87804
1.640,-8.87153
1.648,-8.87498
1.656,-8.89148
1.664,-8.92285
1.672,-8.96928
1.680,-9.02923
1.688,-9.09943
1.696,-9.17503
1.704,-9.24974
1.712,-9.31587
1.720,-9.36414
1.728,-9.38323
1.736,-9.35926
1.744,-9.27512
1.752,-9.11009
1.760,-8.83975
1.768,-8.43651
1.776,-7.87078
1.784,-7.11272
1.792,-6.13456
1.800,-4.91317
1.808,-3.43266
1.816,-1.68696
1.824,0.31801
1.832,2.56271
1.840,5.01319
1.848,7.62125
1.856,10.32563
1.864,13.05425
1.872,15.72752
1.880,18.26235
1.888,20.57685
1.896,22.59519
1.904,24.25216
1.912,25.49707
1.920,26.29652
1.928,26.63577
1.936,26.51878
1.944,25.96672
1.952,25.01546
1.960,23.71232
1.968,22.11243
1.976,20.27522
1.984,18.26126
1.992,16.12963
2.000,13.93593
2.008,11.73097
2.016,9.55985
2.024,7.46151
2.032,5.46853
2.040,3.60732
2.048,1.89829
2.056,0.35641
2.064,-1.00840
2.072,-2.19064
2.080,-3.18892
2.088,-4.00555
2.096,-4.64650
2.104,-5.12135
2.112,-5.44339
2.120,-5.62958
2.128,-5.70036
2.136,-5.67908
2.144,-5.59115
2.152,-5.46276
2.160,-5.31960
2.168,-5.18541
2.176,-5.08082
2.184,-5.02241
2.192,-5.02213
2.200,-5.08697
2.208,-5.21892
2.216,-5.41521
2.224,-5.66871
2.232,-5.96865
2.240,-6.30154
2.248,-6.65222
2.256,-7.00524
2.264,-7.34621
2.272,-7.66303
2.280,-7.94688
2.288,-8.19270
2.296,-8.39919
2.304,-8.56830
2.312,-8.70434
2.320,-8.81294
2.328,-8.89994
2.336,-8.97053
2.344,-9.02867
2.352,-9.07688
2.360,-9.11636
2.368,-9.14730
2.376,-9.16944
2.384,-9.18251
2.392,-9.18668
2.400,-9.18293
2.408,-9.17309
2.416,-9.15979
2.424,-9.14621
2.432,-9.13564
2.440,-9.13088
2.448,-9.13352
2.456,-9.14306
2.464,-9.15594
2.472,-9.16473
2.480,-9.15747
2.488,-9.11734
2.496,-9.02273
2.504,-8.84780
2.512,-8.56341
2.520,-8.13852
2.528,-7.54182
2.536,-6.74367
2.544,-5.71814
2.552,-4.44518
2.560,-2.91289
2.568,-1.11964
2.576,0.92419
2.584,3.19482
2.592,5.65459
2.600,8.25236
2.608,10.92496
2.616,13.59977
2.624,16.19815
2.632,18.63958
2.640,20.84611
2.648,22.74672
2.656,24.28133
2.664,25.40397
2.672,26.08501
2.680,26.31213
2.688,26.09039
2.696,25.44105
2.704,24.39972
2.712,23.01365
2.720,21.33858
2.728,19.43543
2.736,17.36693
2.744,15.19468
2.752,12.97661
2.760,10.76522
2.768,8.60642
2.776,6.53904
2.784,4.59477
2.792,2.79844
2.800,1.16846
2.808,-0.28252
2.816,-1.54701
2.824,-2.62198
2.832,-3.50844
2.840,-4.21110
2.848,-4.73828
2.856,-5.10197
2.864,-5.31795
2.872,-5.40580
2.880,-5.38869
2.888,-5.29266
2.896,-5.14562
2.904,-4.97589
2.912,-4.81057
2.920,-4.67393
2.928,-4.58597
2.936,-4.56141
2.944,-4.60906
2.952,-4.73179
2.960,-4.92689
2.968,-5.18681
2.976,-5.50028
2.984,-5.85348
2.992,-6.23141
3.000,-6.61905
3.008,-7.00246
3.016,-7.36946
3.024,-7.71017
3.032,-8.01706
3.040,-8.28495
3.048,-8.51074
3.056,-8.69326
3.064,-8.83303
3.072,-8.93228
3.080,-8.99480
3.088,-9.02590
3.096,-9.03212
3.104,-9.02079
3.112,-8.99945
3.120,-8.97523
3.128,-8.95418
3.136,-8.94085
3.144,-8.93804
3.152,-8.94678
3.160,-8.96651
3.168,-8.99542
3.176,-9.03074
3.184,-9.06911
3.192,-9.10666
3.200,-9.13898
3.208,-9.16071
3.216,-9.16498
3.224,-9.14257
3.232,-9.08117
3.240,-8.96473
3.248,-8.77328
3.256,-8.48309
3.264,-8.06738
3.272,-7.49746
3.280,-6.74440
3.288,-5.78109
3.296,-4.58458
3.304,-3.13864
3.312,-1.43629
3.320,0.51794
3.328,2.70634
3.336,5.09706
3.344,7.64419
3.352,10.28895
3.360,12.96183
3.368,15.58576
3.376,18.07998
3.384,20.36436
3.392,22.36388
3.400,24.01279
3.408,25.25824
3.416,26.06302
3.424,26.40729
3.432,26.28921
3.440,25.72441
3.448,24.74456
3.456,23.39492
3.464,21.73131
3.472,19.81665
3.480,17.71732
3.488,15.49967
3.496,13.22699
3.504,10.95696
3.512,8.73988
3.520,6.61758
3.528,4.62315
3.536,2.78127
3.544,1.10916
3.552,-0.38233
3.560,-1.68749
3.568,-2.80470
3.576,-3.73577
3.584,-4.48557
3.592,-5.06212
3.600,-5.47685
3.608,-5.74493
3.616,-5.88538
3.624,-5.92077
3.632,-5.87636
3.640,-5.77884
3.648,-5.65470
3.656,-5.52856
3.664,-5.42177
3.672,-5.35136
3.680,-5.32947
3.688,-5.36329
3.696,-5.45528
3.704,-5.60382
3.712,-5.80385
3.720,-6.04773
3.728,-6.32591
3.736,-6.62760
3.744,-6.94137
3.752,-7.25563
3.760,-7.55918
3.768,-7.84177
3.776,-8.09452
3.784,-8.31047
3.792,-8.48490
3.800,-8.61566
3.808,-8.70327
3.816,-8.75097
3.824,-8.76440
3.832,-8.75129
3.840,-8.72070
3.848,-8.68227
3.856,-8.64529
3.864,-8.61775
3.872,-8.60567
3.880,-8.61259
3.888,-8.63943
3.896,-8.68474
3.904,-8.74513
3.912,-8.81593
3.920,-8.89189
3.928,-8.96788
3.936,-9.03937
3.944,-9.10266
3.952,-9.15484
3.960,-9.19333
3.968,-9.21516
3.976,-9.21593
3.984,-9.18870
3.992,-9.12285
4.000,-9.00319
4.008,-8.80937
4.016,-8.51602
4.024,-8.09334
4.032,-7.50847
4.040,-6.72759
4.048,-5.71851
4.056,-4.45389
4.064,-2.91463
4.072,-1.09323
4.080,1.00346
4.088,3.35223
4.096,5.91281
4.104,8.62854
4.112,11.42856
4.120,14.23134
4.128,16.94923
4.136,19.49364
4.144,21.78029
4.152,23.73415
4.160,25.29357
4.168,26.41332
4.176,27.06646
4.184,27.24488
4.192,26.95877
4.200,26.23500
4.208,25.11473
4.216,23.65032
4.224,21.90193
4.232,19.93388
4.240,17.81126
4.248,15.59676
4.256,13.34816
4.264,11.11650
4.272,8.94497
4.280,6.86862
4.288,4.91463
4.296,3.10315
4.304,1.44845
4.312,-0.03971
4.320,-1.35488
4.328,-2.49290
4.336,-3.45154
4.344,-4.23054
4.352,-4.83227
4.360,-5.26260
4.368,-5.53194
4.376,-5.65593
4.384,-5.65559
4.392,-5.55680
4.400,-5.38904
4.408,-5.18362
4.416,-4.97140
4.424,-4.78057
4.432,-4.63457
4.440,-4.55056
4.448,-4.53873
4.456,-4.60231
4.464,-4.73843
4.472,-4.93937
4.480,-5.19417
4.488,-5.49022
4.496,-5.81459
4.504,-6.15510
4.512,-6.50095
4.520,-6.84309
4.528,-7.17425
4.536,-7.48884
4.544,-7.78269
4.552,-8.05277
4.560,-8.29698
4.568,-8.51399
4.576,-8.70324
4.584,-8.86496
4.592,-9.00020
4.600,-9.11078
4.608,-9.19917
4.616,-9.26824
4.624,-9.32090
4.632,-9.35981
4.640,-9.38708
4.648,-9.40419
4.656,-9.41193
4.664,-9.41066
4.672,-9.40068
4.680,-9.38260
4.688,-9.35777
4.696,-9.32843
4.704,-9.29748
4.712,-9.26789
4.720,-9.24158
4.728,-9.21809
4.736,-9.19319
4.744,-9.15769
4.752,-9.09670
4.760,-8.98964
4.768,-8.81081
4.776,-8.53064
4.784,-8.11747
4.792,-7.53946
4.800,-6.76665
4.808,-5.77287
4.816,-4.53767
4.824,-3.04805
4.832,-1.30039
4.840,0.69790
4.848,2.92683
4.856,5.35284
4.864,7.92861
4.872,10.59393
4.880,13.27780
4.888,15.90167
4.896,18.38358
4.904,20.64294
4.912,22.60533
4.920,24.20702
4.928,25.39881
4.936,26.14865
4.944,26.44300
4.952,26.28685
4.960,25.70239
4.968,24.72670
4.976,23.40849
4.984,21.80460
4.992,19.97628
5.000,17.98585
5.008,15.89381
5.016,13.75659
5.024,11.62489
5.032,9.54261
5.040,7.54625
5.048,5.66462
5.056,3.91893
5.064,2.32316
5.072,0.88483
5.080,-0.39398
5.088,-1.51537
5.096,-2.48431
5.104,-3.30737
5.112,-3.99186
5.120,-4.54523
5.128,-4.97507
5.136,-5.28952
5.144,-5.49796
5.152,-5.61189
5.160,-5.64566
5.168,-5.61675
5.176,-5.54556
5.184,-5.45451
5.192,-5.36653
5.200,-5.30324
5.208,-5.28305
5.216,-5.31946
5.224,-5.41984
5.232,-5.58496
5.240,-5.80914
5.248,-6.08124
5.256,-6.38610
5.264,-6.70639
5.272,-7.02458
5.280,-7.32469
5.288,-7.59370
5.296,-7.82252
5.304,-8.00628
5.312,-8.14421
5.320,-8.23901
5.328,-8.29594
5.336,-8.32187
5.344,-8.32431
5.352,-8.31070
5.360,-8.28792
5.368,-8.26204
5.376,-8.23825
5.384,-8.22098
5.392,-8.21407
5.400,-8.22081
5.408,-8.24410
5.416,-8.28638
5.424,-8.34963
5.432,-8.43530
5.440,-8.54433
5.448,-8.67696
5.456,-8.83253
5.464,-9.00899
5.472,-9.20234
5.480,-9.40598
5.488,-9.60998
5.496,-9.80058
5.504,-9.95969
5.512,-10.06477
5.520,-10.08897
5.528,-10.00175
5.536,-9.77007
5.544,-9.36007
5.552,-8.73916
5.560,-7.87842
5.568,-6.75492
5.576,-5.35399
5.584,-3.67111
5.592,-1.71342
5.600,0.49933
5.608,2.93457
5.616,5.54733
5.624,8.28134
5.632,11.07072
5.640,13.84232
5.648,16.51864
5.656,19.02146
5.664,21.27587
5.672,23.21441
5.680,24.78088
5.688,25.93333
5.696,26.64587
5.704,26.90919
5.712,26.72972
5.720,26.12773
5.728,25.13474
5.736,23.79058
5.744,22.14062
5.752,20.23341
5.760,18.11903
5.768,15.84820
5.776,13.47209
5.784,11.04252
5.792,8.61234
5.800,6.23543
5.808,3.96604
5.816,1.85711
5.824,-0.04236
5.832,-1.69088
5.840,-3.05822
5.848,-4.12881
5.856,-4.90402
5.864,-5.40266
5.872,-5.65939
5.880,-5.72122
5.888,-5.64262
5.896,-5.48006
5.904,-5.28678
5.912,-5.10862
5.920,-4.98107
5.928,-4.92787
5.936,-4.96095
5.944,-5.08152
5.952,-5.28209
5.960,-5.54888
5.968,-5.86442
5.976,-6.20996
5.984,-6.56753
5.992,-6.92140
6.000,-7.25904
6.008,-7.57151
6.016,-7.85340
6.024,-8.10234
6.032,-8.31829
6.040,-8.50277
6.048,-8.65810
6.056,-8.78687
6.064,-8.89158
6.072,-8.97463
6.080,-9.03832
6.088,-9.08507
6.096,-9.11748
6.104,-9.13832
6.112,-9.15053
6.120,-9.15704
6.128,-9.16070
6.136,-9.16418
6.144,-9.16993
6.152,-9.18009
6.160,-9.19641
6.168,-9.22016
6.176,-9.25192
6.184,-9.29136
6.192,-9.33683
6.200,-9.38497
6.208,-9.43016
6.216,-9.46403
6.224,-9.47496
6.232,-9.44765
6.240,-9.36287
6.248,-9.19748
6.256,-8.92483
6.264,-8.51564
6.272,-7.93936
6.280,-7.16600
6.288,-6.16832
6.296,-4.92422
6.304,-3.41917
6.312,-1.64846
6.320,0.38085
6.328,2.64858
6.336,5.12062
6.344,7.74912
6.352,10.47352
6.360,13.22260
6.368,15.91751
6.376,18.47557
6.384,20.81480
6.392,22.85863
6.400,24.54052
6.408,25.80780
6.416,26.62470
6.424,26.97397
6.432,26.85728
6.440,26.29431
6.448,25.32058
6.456,23.98454
6.464,22.34389
6.472,20.46179
6.480,18.40309
6.488,16.23088
6.496,14.00381
6.504,11.77421
6.512,9.58702
6.520,7.47969
6.528,5.48246
6.536,3.61915
6.544,1.90790
6.552,0.36187
6.560,-1.01032
6.568,-2.20424
6.576,-3.21947
6.584,-4.05936
6.592,-4.73085
6.600,-5.24411
6.608,-5.61208
6.616,-5.84988
6.624,-5.97409
6.632,-6.00218
6.640,-5.95195
6.648,-5.84121
6.656,-5.68760
6.664,-5.50850
6.672,-5.32087
6.680,-5.14102
6.688,-4.98418
6.696,-4.86393
6.704,-4.79162
6.712,-4.77579
6.720,-4.82171
6.728,-4.93116
6.736,-5.10224
6.744,-5.32954
6.752,-5.60440
6.760,-5.91554
6.768,-6.24979
6.776,-6.59320
6.784,-6.93207
6.792,-7.25403
6.800,-7.54892
6.808,-7.80936
6.816,-8.03110
6.824,-8.21301
6.832,-8.35690
6.840,-8.46703
6.848,-8.54948
6.856,-8.61130
6.864,-8.65966
6.872,-8.70096
6.880,-8.74013
6.888,-8.78026
6.896,-8.82247
6.904,-8.86620
6.912,-8.90967
6.920,-8.95055
6.928,-8.98662
6.936,-9.01628
6.944,-9.03902
6.952,-9.05557
6.960,-9.06791
6.968,-9.07895
6.976,-9.09192
6.984,-9.10951
6.992,-9.13263
7.000,-9.15922
7.008,-9.18294
7.016,-9.19220
7.024,-9.16944
7.032,-9.09100
7.040,-8.92752
7.048,-8.64505
7.056,-8.20680
7.064,-7.57553
7.072,-6.71638
7.080,-5.59991
7.088,-4.20514
7.096,-2.52241
7.104,-0.55565
7.112,1.67606
7.120,4.13791
7.128,6.77983
7.136,9.53808
7.144,12.33793
7.152,15.09722
7.160,17.73067
7.168,20.15460
7.176,22.29156
7.184,24.07465
7.192,25.45107
7.200,26.38469
7.208,26.85731
7.216,26.86886
7.224,26.43622
7.232,25.59131
7.240,24.37825
7.248,22.85024
7.256,21.06610
7.264,19.08696
7.272,16.97323
7.280,14.78205
7.288,12.56549
7.296,10.36935
7.304,8.23282
7.312,6.18865
7.320,4.26374
7.328,2.47993
7.336,0.85469
7.344,-0.59834
7.352,-1.86918
7.360,-2.95161
7.368,-3.84344
7.376,-4.54688
7.384,-5.06880
7.392,-5.42086
7.400,-5.61943
7.408,-5.68524
7.416,-5.64274
7.424,-5.51915
7.432,-5.34348
7.440,-5.14520
7.448,-4.95290
7.456,-4.79288
7.464,-4.68768
7.472,-4.65480
7.480,-4.70563
7.488,-4.84471
7.496,-5.06949
7.504,-5.37058
7.512,-5.73274
7.520,-6.13631
7.528,-6.55920
7.536,-6.97900
7.544,-7.37516
7.552,-7.73073
7.560,-8.03365
7.568,-8.27748
7.576,-8.46129
7.584,-8.58911
7.592,-8.66879
7.600,-8.71072
7.608,-8.72628
7.616,-8.72656
7.624,-8.72122
7.632,-8.71771
7.640,-8.72092
7.648,-8.73320
7.656,-8.75470
7.664,-8.78403
7.672,-8.81904
7.680,-8.85760
7.688,-8.89828
7.696,-8.94071
7.704,-8.98553
7.712,-9.03402
7.720,-9.08728
7.728,-9.14522
7.736,-9.20538
7.744,-9.26197
7.752,-9.30501
7.760,-9.32000
7.768,-9.28781
7.776,-9.18512
7.784,-8.98510
7.792,-8.65836
7.800,-8.17420
7.808,-7.50206
7.816,-6.61330
7.824,-5.48330
7.832,-4.09381
7.840,-2.43544
7.848,-0.51006
7.856,1.66718
7.864,4.06649
7.872,6.64305
7.880,9.33781
7.888,12.07959
7.896,14.78838
7.904,17.37971
7.912,19.76962
7.920,21.87986
7.928,23.64261
7.936,25.00450
7.944,25.92927
7.952,26.39917
7.960,26.41494
7.968,25.99453
7.976,25.17088
7.984,23.98882
7.992,22.50175
8.000,20.76801
8.008,18.84755
8.016,16.79888
8.024,14.67676
8.032,12.53044
8.040,10.40283
8.048,8.33024
8.056,6.34272
8.064,4.46477
8.072,2.71625
8.080,1.11323
8.088,-0.33133
8.096,-1.60713
8.104,-2.70660
8.112,-3.62523
8.120,-4.36219
8.128,-4.92112
8.136,-5.31070
8.144,-5.54507
8.152,-5.64360
8.160,-5.63037
8.168,-5.53299
8.176,-5.38127
8.184,-5.20553
8.192,-5.03481
8.200,-4.89525
8.208,-4.80847
8.216,-4.79037
8.224,-4.85020
8.232,-4.99034
8.240,-5.20653
8.248,-5.48892
8.256,-5.82343
8.264,-6.19349
8.272,-6.58166
8.280,-6.97110
8.288,-7.34664
8.296,-7.69561
8.304,-8.00829
8.312,-8.27820
8.320,-8.50210
8.328,-8.67985
8.336,-8.81404
8.344,-8.90960
8.352,-8.97315
8.360,-9.01233
8.368,-9.03510
8.376,-9.04903
8.384,-9.06068
8.392,-9.07525
8.400,-9.09628
8.408,-9.12564
8.416,-9.16365
8.424,-9.20944
8.432,-9.26132
8.440,-9.31717
8.448,-9.37473
8.456,-9.43176
8.464,-9.48604
8.472,-9.53529
8.480,-9.57684
8.488,-9.60726
8.496,-9.62162
8.504,-9.61286
8.512,-9.57100
8.520,-9.48254
8.528,-9.33005
8.536,-9.09206
8.544,-8.74334
8.552,-8.25577
8.560,-7.59968
8.568,-6.74571
8.576,-5.66719
8.584,-4.34268
8.592,-2.75883
8.600,-0.91293
8.608,1.18491
8.616,3.51021
8.624,6.02364
8.632,8.67151
8.640,11.38754
8.648,14.09581
8.656,16.71461
8.664,19.16105
8.672,21.35579
8.680,23.22769
8.688,24.71795
8.696,25.78332
8.704,26.39816
8.712,26.55511
8.720,26.26456
8.728,25.55276
8.736,24.45919
8.744,23.03324
8.752,21.33076
8.760,19.41074
8.768,17.33241
8.776,15.15293
8.784,12.92566
8.792,10.69908
8.800,8.51615
8.808,6.41411
8.816,4.42459
8.824,2.57392
8.832,0.88353
8.840,-0.62975
8.848,-1.95349
8.856,-3.07971
8.864,-4.00512
8.872,-4.73150
8.880,-5.26598
8.888,-5.62127
8.896,-5.81554
8.904,-5.87195
8.912,-5.81771
8.920,-5.68285
8.928,-5.49846
8.936,-5.29496
8.944,-5.10031
8.952,-4.93842
8.960,-4.82807
8.968,-4.78219
8.976,-4.80766
8.984,-4.90563
8.992,-5.07214
9.000,-5.29917
9.008,-5.57584
9.016,-5.88962
9.024,-6.22742
9.032,-6.57642
9.040,-6.92468
9.048,-7.26159
9.056,-7.57823
9.064,-7.86759
9.072,-8.12477
9.080,-8.34695
9.088,-8.53320
9.096,-8.68423
9.104,-8.80202
9.112,-8.88937
9.120,-8.94967
9.128,-8.98654
9.136,-9.00370
9.144,-9.00488
9.152,-8.99376
9.160,-8.97396
9.168,-8.94899
9.176,-8.92221
9.184,-8.89672
9.192,-8.87527
9.200,-8.86020
9.208,-8.85330
9.216,-8.85579
9.224,-8.86817
9.232,-8.89018
9.240,-8.92051
9.248,-8.95646
9.256,-8.99340
9.264,-9.02390
9.272,-9.03686
9.280,-9.01659
9.288,-8.94223
9.296,-8.78766
9.304,-8.52220
9.312,-8.11196
9.320,-7.52195
9.328,-6.71850
9.336,-5.67198
9.344,-4.35949
9.352,-2.76738
9.360,-0.89361
9.368,1.25033
9.376,3.63802
9.384,6.22753
9.392,8.96196
9.400,11.77108
9.408,14.57442
9.416,17.28538
9.424,19.81609
9.432,22.08273
9.440,24.01052
9.448,25.53821
9.456,26.62147
9.464,27.23498
9.472,27.37304
9.480,27.04883
9.488,26.29234
9.496,25.14746
9.504,23.66830
9.512,21.91530
9.520,19.95130
9.528,17.83809
9.536,15.63362
9.544,13.39026
9.552,11.15382
9.560,8.96350
9.568,6.85247
9.576,4.84869
9.584,2.97593
9.592,1.25450
9.600,-0.29831
9.608,-1.66815
9.616,-2.84408
9.624,-3.81922
9.632,-4.59161
9.640,-5.16512
9.648,-5.54999
9.656,-5.76299
9.664,-5.82708
9.672,-5.77034
9.680,-5.62448
9.688,-5.42294
9.696,-5.19873
9.704,-4.98250
9.712,-4.80070
9.720,-4.67433
9.728,-4.61811
9.736,-4.64027
9.744,-4.74275
9.752,-4.92187
9.760,-5.16915
9.768,-5.47250
9.776,-5.81738
9.784,-6.18814
9.792,-6.56921
9.800,-6.94621
9.808,-7.30682
9.816,-7.64141
9.824,-7.94330
9.832,-8.20884
9.840,-8.43705
9.848,-8.62915
9.856,-8.78784
9.864,-8.91656
9.872,-9.01887
9.880,-9.09800
9.888,-9.15679
9.896,-9.19772
9.904,-9.22317
9.912,-9.23554
9.920,-9.23739
9.928,-9.23130
9.936,-9.21974
9.944,-9.20487
9.952,-9.18847
9.960,-9.17200
9.968,-9.15680
9.976,-9.14425
9.984,-9.13589
9.992,-9.13322
10.000,-9.13723
10.008,-9.14767
10.016,-9.16206
10.024,-9.17453
10.032,-9.17484
10.040,-9.14755
10.048,-9.07178
10.056,-8.92146
10.064,-8.66629
10.072,-8.27320
10.080,-7.70837
10.088,-6.93955
10.096,-5.93855
10.104,-4.68374
10.112,-3.16248
10.120,-1.37311
10.128,0.67337
10.136,2.95247
10.144,5.42602
10.152,8.04299
10.160,10.74112
10.168,13.44928
10.176,16.09060
10.184,18.58615
10.192,20.85889
10.200,22.83775
10.208,24.46145
10.216,25.68176
10.224,26.46596
10.232,26.79829
10.240,26.68025
10.248,26.12966
10.256,25.17883
10.264,23.87186
10.272,22.26152
10.280,20.40598
10.288,18.36563
10.296,16.20029
10.304,13.96699
10.312,11.71828
10.320,9.50132
10.328,7.35735
10.336,5.32167
10.344,3.42378
10.352,1.68759
10.360,0.13151
10.368,-1.23158
10.376,-2.39438
10.384,-3.35529
10.392,-4.11852
10.400,-4.69393
10.408,-5.09668
10.416,-5.34665
10.424,-5.46744
10.432,-5.48530
10.440,-5.42770
10.448,-5.32203
10.456,-5.19423
10.464,-5.06764
10.472,-4.96213
10.480,-4.89345
10.488,-4.87297
10.496,-4.90756
10.504,-4.99980
10.512,-5.14835
10.520,-5.34848
10.528,-5.59268
10.536,-5.87137
10.544,-6.17352
10.552,-6.48750
10.560,-6.80183
10.568,-7.10613
10.576,-7.39186
10.584,-7.65300
10.592,-7.88624
10.600,-8.09090
10.608,-8.26840
10.616,-8.42163
10.624,-8.55429
10.632,-8.67021
10.640,-8.77294
10.648,-8.86530
10.656,-8.94924
10.664,-9.02567
10.672,-9.09454
10.680,-9.15492
10.688,-9.20530
10.696,-9.24393
10.704,-9.26936
10.712,-9.28085
10.720,-9.27882
10.728,-9.26510
10.736,-9.24284
10.744,-9.21610
10.752,-9.18921
10.760,-9.16582
10.768,-9.14787
10.776,-9.13461
10.784,-9.12173
10.792,-9.10057
10.800,-9.05752
10.808,-8.97360
10.816,-8.82423
10.824,-8.57948
10.832,-8.20498
10.840,-7.66356
10.848,-6.91776
10.856,-5.93298
10.864,-4.68103
10.872,-3.14375
10.880,-1.31617
10.888,0.79102
10.896,3.15015
10.904,5.71662
10.912,8.43036
10.920,11.21868
10.928,14.00018
10.936,16.68921
10.944,19.20065
10.952,21.45440
10.960,23.37957
10.968,24.91778
10.976,26.02582
10.984,26.67729
10.992,26.86329
11.000,26.59210
11.008,25.88801
11.016,24.78917
11.024,23.34505
11.032,21.61339
11.040,19.65695
11.048,17.54035
11.056,15.32695
11.064,13.07619
11.072,10.84143
11.080,8.66837
11.088,6.59430
11.096,4.64805
11.104,2.85062
11.112,1.21630
11.120,-0.24594
11.128,-1.53118
11.136,-2.63756
11.144,-3.56577
11.152,-4.31893
11.160,-4.90286
11.168,-5.32657
11.176,-5.60269
11.184,-5.74776
11.192,-5.78216
11.200,-5.72966
11.208,-5.61640
11.216,-5.46951
11.224,-5.31546
11.232,-5.17842
11.240,-5.07875
11.248,-5.03190
11.256,-5.04785
11.264,-5.13100
11.272,-5.28059
11.280,-5.49145
11.288,-5.75490
11.296,-6.05972
11.304,-6.39317
11.312,-6.74177
11.320,-7.09219
11.328,-7.43183
11.336,-7.74950
11.344,-8.03585
11.352,-8.28387
11.360,-8.48926
11.368,-8.65062
11.376,-8.76947
11.384,-8.84995
11.392,-8.89826
11.400,-8.92193
11.408,-8.92891
11.416,-8.92684
11.424,-8.92233
11.432,-8.92046
11.440,-8.92456
11.448,-8.93620
11.456,-8.95547
11.464,-8.98142
11.472,-9.01254
11.480,-9.04739
11.488,-9.08496
11.496,-9.12497
11.504,-9.16780
11.512,-9.21392
11.520,-9.26304
11.528,-9.31292
11.536,-9.35814
11.544,-9.38901
11.552,-9.39075
11.560,-9.34321
11.568,-9.22105
11.576,-8.99458
11.584,-8.63115
11.592,-8.09698
11.600,-7.35937
11.608,-6.38906
11.616,-5.16270
11.624,-3.66524
11.632,-1.89228
11.640,0.14805
11.648,2.43370
11.656,4.92810
11.664,7.58052
11.672,10.32743
11.680,13.09509
11.688,15.80300
11.696,18.36825
11.704,20.71013
11.712,22.75473
11.720,24.43912
11.728,25.71461
11.736,26.54893
11.744,26.92719
11.752,26.85158
11.760,26.34019
11.768,25.42501
11.776,24.14933
11.784,22.56494
11.792,20.72910
11.800,18.70166
11.808,16.54242
11.816,14.30893
11.824,12.05473
11.832,9.82811
11.840,7.67130
11.848,5.62004
11.856,3.70351
11.864,1.94450
11.872,0.35982
11.880,-1.03926
11.888,-2.24651
11.896,-3.26030
11.904,-4.08326
11.912,-4.72214
11.920,-5.18762
11.928,-5.49426
11.936,-5.66021
11.944,-5.70688
11.952,-5.65847
11.960,-5.54126
11.968,-5.38277
11.976,-5.21064
11.984,-5.05126
11.992,-4.92834
12.000,-4.86149
12.008,-4.86506
12.016,-4.94724
12.024,-5.10968
12.032,-5.34770
12.040,-5.65091
12.048,-6.00452
12.056,-6.39089
12.064,-6.79132
12.072,-7.18773
12.080,-7.56409
12.088,-7.90751
12.096,-8.20877
12.104,-8.46254
12.112,-8.66716
12.120,-8.82417
12.128,-8.93760
12.136,-9.01328
12.144,-9.05814
12.152,-9.07953
12.160,-9.08473
12.168,-9.08037
12.176,-9.07217
12.184,-9.06460
12.192,-9.06086
12.200,-9.06283
12.208,-9.07128
12.216,-9.08609
12.224,-9.10665
12.232,-9.13222
12.240,-9.16211
12.248,-9.19578
12.256,-9.23256
12.264,-9.27128
12.272,-9.30966
12.280,-9.34357
12.288,-9.36627
12.296,-9.36759
12.304,-9.33323
12.312,-9.24422
12.320,-9.07686
12.328,-8.80299
12.336,-8.39110
12.344,-7.80793
12.352,-7.02080
12.360,-6.00043
12.368,-4.72394
12.376,-3.17775
12.384,-1.36011
12.392,0.71718
12.400,3.02781
12.408,5.53109
12.416,8.17287
12.424,10.88742
12.432,13.60021
12.440,16.23150
12.448,18.70051
12.456,20.92986
12.464,22.84987
12.472,24.40212
12.480,25.54237
12.488,26.24237
12.496,26.49076
12.504,26.29286
12.512,25.66960
12.520,24.65551
12.528,23.29619
12.536,21.64534
12.544,19.76163
12.552,17.70575
12.560,15.53764
12.568,13.31422
12.576,11.08767
12.584,8.90416
12.592,6.80322
12.600,4.81757
12.608,2.97329
12.616,1.29036
12.624,-0.21687
12.632,-1.53906
12.640,-2.67151
12.648,-3.61379
12.656,-4.36958
12.664,-4.94647
12.672,-5.35587
12.680,-5.61293
12.688,-5.73634
12.696,-5.74809
12.704,-5.67297
12.712,-5.53774
12.720,-5.36998
12.728,-5.19677
12.736,-5.04324
12.744,-4.93124
12.752,-4.87808
12.760,-4.89570
12.768,-4.98999
12.776,-5.16065
12.784,-5.40138
12.792,-5.70072
12.800,-6.04324
12.808,-6.41110
12.816,-6.78581
12.824,-7.14988
12.832,-7.48824
12.840,-7.78931
12.848,-8.04562
12.856,-8.25399
12.864,-8.41521
12.872,-8.53341
12.880,-8.61511
12.888,-8.66822
12.896,-8.70107
12.904,-8.72163
12.912,-8.73684
12.920,-8.75222
12.928,-8.77156
12.936,-8.79682
12.944,-8.82830
12.952,-8.86489
12.960,-8.90452
12.968,-8.94470
12.976,-8.98300
12.984,-9.01750
12.992,-9.04704
13.000,-9.07136
13.008,-9.09079
13.016,-9.10571
13.024,-9.11564
13.032,-9.11804
13.040,-9.10704
13.048,-9.07235
13.056,-8.99836
13.064,-8.86385
13.072,-8.64220
13.080,-8.30219
13.088,-7.80951
13.096,-7.12888
13.104,-6.22662
13.112,-5.07371
13.120,-3.64891
13.128,-1.94192
13.136,0.04384
13.144,2.28920
13.152,4.75812
13.160,7.39803
13.168,10.14147
13.176,12.90924
13.184,15.61470
13.192,18.16894
13.200,20.48628
13.208,22.48957
13.216,24.11480
13.224,25.31463
13.232,26.06064
13.240,26.34396
13.248,26.17451
13.256,25.57883
13.264,24.59704
13.272,23.27909
13.280,21.68094
13.288,19.86095
13.296,17.87692
13.304,15.78384
13.312,13.63253
13.320,11.46887
13.328,9.33366
13.336,7.26278
13.344,5.28747
13.352,3.43462
13.360,1.72692
13.368,0.18287
13.376,-1.18326
13.384,-2.36161
13.392,-3.34696
13.400,-4.13901
13.408,-4.74262
13.416,-5.16804
13.424,-5.43082
13.432,-5.55154
13.440,-5.55515
13.448,-5.46991
13.456,-5.32599
13.464,-5.15380
13.472,-4.98221
13.480,-4.83680
13.488,-4.73837
13.496,-4.70191
13.504,-4.73613
13.512,-4.84355
13.520,-5.02107
13.528,-5.26094
13.536,-5.55196
13.544,-5.88077
13.552,-6.23316
13.560,-6.59523
13.568,-6.95431
13.576,-7.29968
13.584,-7.62289
13.592,-7.91786
13.600,-8.18077
13.608,-8.40966
13.616,-8.60414
13.624,-8.76498
13.632,-8.89389
13.640,-8.99330
13.648,-9.06614
13.656,-9.11571
13.664,-9.14543
13.672,-9.15855
13.680,-9.15794
13.688,-9.14595
13.696,-9.12437
13.704,-9.09472
13.712,-9.05854
13.720,-9.01788
13.728,-8.97556
13.736,-8.93537
13.744,-8.90194
13.752,-8.88024
13.760,-8.87482
13.768,-8.88875
13.776,-8.92241
13.784,-8.97226
13.792,-9.02974
13.800,-9.08059
13.808,-9.10452
13.816,-9.07558
13.824,-8.96293
13.832,-8.73230
13.840,-8.34777
13.848,-7.77398
13.856,-6.97862
13.864,-5.93496
13.872,-4.62427
13.880,-3.03803
13.888,-1.17961
13.896,0.93461
13.904,3.27491
13.912,5.79859
13.920,8.45112
13.928,11.16798
13.936,13.87710
13.944,16.50189
13.952,18.96467
13.960,21.19035
13.968,23.11014
13.976,24.66506
13.984,25.80903
13.992,26.51123
14.000,26.75763
14.008,26.55146
14.016,25.91252
14.024,24.87542
14.032,23.48691
14.040,21.80257
14.048,19.88323
14.056,17.79157
14.064,15.58907
14.072,13.33366
14.080,11.07803
14.088,8.86860
14.096,6.74509
14.104,4.74045
14.112,2.88115
14.120,1.18757
14.128,-0.32543
14.136,-1.64813
14.144,-2.77541
14.152,-3.70658
14.160,-4.44520
14.168,-4.99919
14.176,-5.38084
14.184,-5.60686
14.192,-5.69809
14.200,-5.67884
14.208,-5.57590
14.216,-5.41725
14.224,-5.23060
14.232,-5.04200
14.240,-4.87463
14.248,-4.74784
14.256,-4.67646
14.264,-4.67045
14.272,-4.73482
14.280,-4.86974
14.288,-5.07093
14.296,-5.33028
14.304,-5.63658
14.312,-5.97654
14.320,-6.33580
14.328,-6.70006
14.336,-7.05612
14.344,-7.39267
14.352,-7.70087
14.360,-7.97456
14.368,-8.21012
14.376,-8.40611
14.384,-8.56284
14.392,-8.68187
14.400,-8.76570
14.408,-8.81757
14.416,-8.84137
14.424,-8.84168
14.432,-8.82371
14.440,-8.79320
14.448,-8.75622
14.456,-8.71884
14.464,-8.68675
14.472,-8.66496
14.480,-8.65760
14.488,-8.66777
14.496,-8.69742
14.504,-8.74716
14.512,-8.81607
14.520,-8.90139
14.528,-8.99830
14.536,-9.09970
14.544,-9.19620
14.552,-9.27620
14.560,-9.32602
14.568,-9.32998
14.576,-9.27039
14.584,-9.12732
14.592,-8.87834
14.600,-8.49850
14.608,-7.96064
14.616,-7.23643
14.624,-6.29802
14.632,-5.12048
14.640,-3.68463
14.648,-1.98010
14.656,-0.00823
14.664,2.21561
14.672,4.66055
14.680,7.27997
14.688,10.01262
14.696,12.78501
14.704,15.51502
14.712,18.11641
14.720,20.50395
14.728,22.59864
14.736,24.33245
14.744,25.65227
14.752,26.52257
14.760,26.92674
14.768,26.86700
14.776,26.36307
14.784,25.44976
14.792,24.17393
14.800,22.59104
14.808,20.76156
14.816,18.74771
14.824,16.61039
14.832,14.40679
14.840,12.18854
14.848,10.00066
14.856,7.88116
14.864,5.86122
14.872,3.96581
14.880,2.21447
14.888,0.62212
14.896,-0.80025
14.904,-2.04508
14.912,-3.10797
14.920,-3.98746
14.928,-4.68516
14.936,-5.20600
14.944,-5.55871
14.952,-5.75640
14.960,-5.81696
14.968,-5.76314
14.976,-5.62198
14.984,-5.42366
14.992,-5.19978
15.000,-4.98135
15.008,-4.79661
15.016,-4.66909
15.024,-4.61604
15.032,-4.64742
15.040,-4.76562
15.048,-4.96575
15.056,-5.23669
15.064,-5.56261
15.072,-5.92490
15.080,-6.30419
15.088,-6.68232
15.096,-7.04386
15.104,-7.37713
15.112,-7.67459
15.120,-7.93265
15.128,-8.15110
15.136,-8.33221
15.144,-8.47982
15.152,-8.59851
15.160,-8.69295
15.168,-8.76758
15.176,-8.82647
15.184,-8.87329
15.192,-8.91144
15.200,-8.94394
15.208,-8.97345
15.216,-9.00202
15.224,-9.03100
15.232,-9.06086
15.240,-9.09124
15.248,-9.12101
15.256,-9.14867
15.264,-9.17266
15.272,-9.19180
15.280,-9.20557
15.288,-9.21403
15.296,-9.21742
15.304,-9.21529
15.312,-9.20533
15.320,-9.18202
15.328,-9.13537
15.336,-9.04994
15.344,-8.90444
15.352,-8.67185
15.360,-8.32038
15.368,-7.81492
15.376,-7.11931
15.384,-6.19910
15.392,-5.02482
15.400,-3.57532
15.408,-1.84105
15.416,0.17326
15.424,2.44679
15.432,4.94191
15.440,7.60488
15.448,10.36786
15.456,13.15218
15.464,15.87255
15.472,18.44191
15.480,20.77650
15.488,22.80078
15.496,24.45157
15.504,25.68126
15.512,26.45980
15.520,26.77540
15.528,26.63405
15.536,26.05799
15.544,25.08328
15.552,23.75682
15.560,22.13315
15.568,20.27129
15.576,18.23173
15.584,16.07388
15.592,13.85384
15.600,11.62272
15.608,9.42561
15.616,7.30101
15.624,5.28090
15.632,3.39130
15.640,1.65293
15.648,0.08203
15.656,-1.30908
15.664,-2.51173
15.672,-3.52094
15.680,-4.33567
15.688,-4.95932
15.696,-5.40023
15.704,-5.67201
15.712,-5.79364
15.720,-5.78921
15.728,-5.68704
15.736,-5.51840
15.744,-5.31572
15.752,-5.11054
15.760,-4.93139
15.768,-4.80192
15.776,-4.73950
15.784,-4.75446
15.792,-4.85000
15.800,-5.02281
15.808,-5.26413
15.816,-5.56119
15.824,-5.89876
15.832,-6.26060
15.840,-6.63086
15.848,-6.99509
15.856,-7.34104
15.864,-7.65905
15.872,-7.94210
15.880,-8.18569
15.888,-8.38757
15.896,-8.54749
15.904,-8.66704
15.912,-8.74946
15.920,-8.79941
15.928,-8.82259
15.936,-8.82538
15.944,-8.81428
15.952,-8.79558
15.960,-8.77496
15.968,-8.75729
15.976,-8.74649
15.984,-8.74538
15.992,-8.75569
16.000,-8.77802
16.008,-8.81195
16.016,-8.85614
16.024,-8.90859
16.032,-8.96686
16.040,-9.02825
16.048,-9.08976
16.056,-9.14792
16.064,-9.19818
16.072,-9.23413
16.080,-9.24642
16.088,-9.22176
16.096,-9.14213
16.104,-8.98442
16.112,-8.72068
16.120,-8.31911
16.128,-7.74572
16.136,-6.96665
16.144,-5.95097
16.152,-4.67375
16.160,-3.11910
16.168,-1.28300
16.176,0.82463
16.184,3.17856
16.192,5.73798
16.200,8.44725
16.208,11.23781
16.216,14.03100
16.224,16.74179
16.232,19.28317
16.240,21.57103
16.248,23.52907
16.256,25.09352
16.264,26.21698
16.272,26.87108
16.280,27.04766
16.288,26.75840
16.296,26.03290
16.304,24.91568
16.312,23.46224
16.320,21.73475
16.328,19.79783
16.336,17.71480
16.344,15.54473
16.352,13.34033
16.360,11.14689
16.368,9.00217
16.376,6.93703
16.384,4.97654
16.392,3.14131
16.400,1.44855
16.408,-0.08719
16.416,-1.45369
16.424,-2.64125
16.432,-3.64327
16.440,-4.45701
16.448,-5.08439
16.456,-5.53268
16.464,-5.81477
16.472,-5.94909
16.480,-5.95905
16.488,-5.87210
16.496,-5.71835
16.504,-5.52899
16.512,-5.33446
16.520,-5.16261
16.528,-5.03701
16.536,-4.97554
16.544,-4.98950
16.552,-5.08320
16.560,-5.25424
16.568,-5.49427
16.576,-5.79028
16.584,-6.12614
16.592,-6.48431
16.600,-6.84749
16.608,-7.20005
16.616,-7.52917
16.624,-7.82556
16.632,-8.08380
16.640,-8.30212
16.648,-8.48195
16.656,-8.62705
16.664,-8.74271
16.672,-8.83484
16.680,-8.90921
16.688,-8.97088
16.696,-9.02386
16.704,-9.07086
16.712,-9.11337
16.720,-9.15175
16.728,-9.18565
16.736,-9.21437
16.744,-9.23732
16.752,-9.25435
16.760,-9.26591
16.768,-9.27311
16.776,-9.27755
16.784,-9.28113
16.792,-9.28563
16.800,-9.29224
16.808,-9.30081
16.816,-9.30912
16.824,-9.31199
16.832,-9.30052
16.840,-9.26133
16.848,-9.17630
16.856,-9.02252
16.864,-8.77273
16.872,-8.39628
16.880,-7.86040
16.888,-7.13206
16.896,-6.18020
16.904,-4.97838
16.912,-3.50766
16.920,-1.75946
16.928,0.26186
16.936,2.53696
16.944,5.03047
16.952,7.69110
16.960,10.45314
16.968,13.23933
16.976,15.96489
16.984,18.54249
16.992,20.88747
17.000,22.92297
17.008,24.58431
17.016,25.82251
17.024,26.60645
17.032,26.92370
17.040,26.78011
17.048,26.19812
17.056,25.21423
17.064,23.87593
17.072,22.23833
17.080,20.36086
17.088,18.30418
17.096,16.12766
17.104,13.88736
17.112,11.63469
17.120,9.41569
17.128,7.27070
17.136,5.23439
17.144,3.33583
17.152,1.59857
17.160,0.04077
17.168,-1.32492
17.176,-2.49137
17.184,-3.45701
17.192,-4.22582
17.200,-4.80714
17.208,-5.21527
17.216,-5.46898
17.224,-5.59065
17.232,-5.60548
17.240,-5.54034
17.248,-5.42272
17.256,-5.27951
17.264,-5.13593
17.272,-5.01443
17.280,-4.93388
17.288,-4.90881
17.296,-4.94894
17.304,-5.05884
17.312,-5.23787
17.320,-5.48041
17.328,-5.77633
17.336,-6.11192
17.344,-6.47101
17.352,-6.83647
17.360,-7.19173
17.368,-7.52229
17.376,-7.81690
17.384,-8.06832
17.392,-8.27356
17.400,-8.43362
17.408,-8.55284
17.416,-8.63799
17.424,-8.69722
17.432,-8.73909
17.440,-8.77166
17.448,-8.80178
17.456,-8.83450
17.464,-8.87281
17.472,-8.91753
17.480,-8.96750
17.488,-9.02003
17.496,-9.07155
17.504,-9.11839
17.512,-9.15758
17.520,-9.18742
17.528,-9.20785
17.536,-9.22029
17.544,-9.22717
17.552,-9.23098
17.560,-9.23311
17.568,-9.23261
17.576,-9.22490
17.584,-9.20063
17.592,-9.14493
17.600,-9.03700
17.608,-8.85034
17.616,-8.55362
17.624,-8.11232
17.632,-7.49095
17.640,-6.65577
17.648,-5.57789
17.656,-4.23637
17.664,-2.62118
17.672,-0.73556
17.680,1.40249
17.688,3.75981
17.696,6.28884
17.704,8.92948
17.712,11.61196
17.720,14.26030
17.728,16.79613
17.736,19.14263
17.744,21.22833
17.752,22.99052
17.760,24.37813
17.768,25.35398
17.776,25.89624
17.784,25.99905
17.792,25.67231
17.800,24.94070
17.808,23.84183
17.816,22.42376
17.824,20.74196
17.832,18.85603
17.840,16.82633
17.848,14.71102
17.856,12.56358
17.864,10.43116
17.872,8.35370
17.880,6.36392
17.888,4.48781
17.896,2.74564
17.904,1.15289
17.912,-0.27879
17.920,-1.54097
17.928,-2.62816
17.936,-3.53792
17.944,-4.27119
17.952,-4.83273
17.960,-5.23149
17.968,-5.48077
17.976,-5.59815
17.984,-5.60509
17.992,-5.52623
18.000,-5.38841
18.008,-5.21944
18.016,-5.04666
18.024,-4.89539
18.032,-4.78746
18.040,-4.73989
18.048,-4.76393
18.056,-4.86451
18.064,-5.04014
18.072,-5.28349
18.080,-5.58238
18.088,-5.92125
18.096,-6.28287
18.104,-6.65009
18.112,-7.00735
18.120,-7.34181
18.128,-7.64404
18.136,-7.90822
18.144,-8.13197
18.152,-8.31587
18.160,-8.46278
18.168,-8.57722
18.176,-8.66455
18.184,-8.73043
18.192,-8.78024
18.200,-8.81871
18.208,-8.84973
18.216,-8.87628
18.224,-8.90052
18.232,-8.92403
18.240,-8.94794
18.248,-8.97322
18.256,-9.00075
18.264,-9.03146
18.272,-9.06614
18.280,-9.10528
18.288,-9.14867
18.296,-9.19498
18.304,-9.24129
18.312,-9.28256
18.320,-9.31115
18.328,-9.31617
18.336,-9.28297
18.344,-9.19268
18.352,-9.02211
18.360,-8.74411
18.368,-8.32850
18.376,-7.74352
18.384,-6.95804
18.392,-5.94407
18.400,-4.67962
18.408,-3.15151
18.416,-1.35784
18.424,0.69010
18.432,2.96686
18.440,5.43279
18.448,8.03506
18.456,10.70969
18.464,13.38437
18.472,15.98189
18.480,18.42392
18.488,20.63492
18.496,22.54594
18.504,24.09805
18.512,25.24524
18.520,25.95660
18.528,26.21763
18.536,26.03065
18.544,25.41422
18.552,24.40159
18.560,23.03843
18.568,21.37978
18.576,19.48668
18.584,17.42257
18.592,15.25000
18.600,13.02773
18.608,10.80867
18.616,8.63851
18.624,6.55528
18.632,4.58952
18.640,2.76491
18.648,1.09928
18.656,-0.39440
18.664,-1.70709
18.672,-2.83304
18.680,-3.76963
18.688,-4.51753
18.696,-5.08141
18.704,-5.47057
18.712,-5.69963
18.720,-5.78855
18.728,-5.76223
18.736,-5.64931
18.744,-5.48045
18.752,-5.28637
18.760,-5.09571
18.768,-4.93334
18.776,-4.81899
18.784,-4.76652
18.792,-4.78375
18.800,-4.87274
18.808,-5.03051
18.816,-5.24992
18.824,-5.52074
18.832,-5.83076
18.840,-6.16675
18.848,-6.51549
18.856,-6.86453
18.864,-7.20290
18.872,-7.52155
18.880,-7.81364
18.888,-8.07449
18.896,-8.30149
18.904,-8.49373
18.912,-8.65158
18.920,-8.77633
18.928,-8.86988
18.936,-8.93462
18.944,-8.97338
18.952,-8.98940
18.960,-8.98636
18.968,-8.96830
18.976,-8.93945
18.984,-8.90412
18.992,-8.86643
19.000,-8.83024
19.008,-8.79901
19.016,-8.77579
19.024,-8.76315
19.032,-8.76314
19.040,-8.77699
19.048,-8.80485
19.056,-8.84531
19.064,-8.89494
19.072,-8.94785
19.080,-8.99540
19.088,-9.02592
19.096,-9.02453
19.104,-8.97291
19.112,-8.84908
19.120,-8.62727
19.128,-8.27822
19.136,-7.77001
19.144,-7.06971
19.152,-6.14570
19.160,-4.97067
19.168,-3.52489
19.176,-1.79929
19.184,0.20188
19.192,2.45931
19.200,4.93792
19.208,7.58724
19.216,10.34306
19.224,13.12997
19.232,15.86493
19.240,18.46155
19.248,20.83481
19.256,22.90608
19.264,24.60777
19.272,25.88740
19.280,26.71045
19.288,27.06194
19.296,26.94651
19.304,26.38692
19.312,25.42144
19.320,24.10016
19.328,22.48096
19.336,20.62546
19.344,18.59532
19.352,16.44939
19.360,14.24163
19.368,12.02009
19.376,9.82663
19.384,7.69728
19.392,5.66298
19.400,3.75032
19.408,1.98213
19.416,0.37770
19.424,-1.04735
19.432,-2.28147
19.440,-3.31772
19.448,-4.15436
19.456,-4.79525
19.464,-5.25005
19.472,-5.53413
19.480,-5.66808
19.488,-5.67695
19.496,-5.58916
19.504,-5.43516
19.512,-5.24597
19.520,-5.05145
19.528,-4.87874
19.536,-4.75072
19.544,-4.68482
19.552,-4.69217
19.560,-4.77723
19.568,-4.93799
19.576,-5.16668
19.584,-5.45107
19.592,-5.77608
19.600,-6.12544
19.608,-6.48328
19.616,-6.83533
19.624,-7.16974
19.632,-7.47744
19.640,-7.75217
19.648,-7.99025
19.656,-8.19024
19.664,-8.35265
19.672,-8.47958
19.680,-8.57442
19.688,-8.64158
19.696,-8.68615
19.704,-8.71359
19.712,-8.72941
19.720,-8.73889
19.728,-8.74670
19.736,-8.75670
19.744,-8.77168
19.752,-8.79320
19.760,-8.82162
19.768,-8.85627
19.776,-8.89577
19.784,-8.93847
19.792,-8.98279
19.800,-9.02744
19.808,-9.07133
19.816,-9.11332
19.824,-9.15165
19.832,-9.18334
19.840,-9.20344
19.848,-9.20435
19.856,-9.17508
19.864,-9.10071
19.872,-8.96205
19.880,-8.73564
19.888,-8.39413
19.896,-7.90716
19.904,-7.24280
19.912,-6.36948
19.920,-5.25862
19.928,-3.88757
19.936,-2.24274
19.944,-0.32250
19.952,1.86041
19.960,4.27750
19.968,6.88407
19.976,9.62018
19.984,12.41274
19.992,15.17894
20.000,17.83055
20.008,20.27889
20.016,22.44012
20.024,24.24034
20.032,25.62021
20.040,26.53840
20.048,26.97378
20.056,26.92597
20.064,26.41445
20.072,25.47620
20.080,24.16225
20.088,22.53354
20.096,20.65654
20.104,18.59910
20.112,16.42680
20.120,14.20012
20.128,11.97258
20.136,9.78970
20.144,7.68878
20.152,5.69932
20.160,3.84385
20.168,2.13896
20.176,0.59645
20.184,-0.77570
20.192,-1.97266
20.200,-2.99236
20.208,-3.83555
20.216,-4.50599
20.224,-5.01081
20.232,-5.36080
20.240,-5.57049
20.248,-5.65805
20.256,-5.64476
20.264,-5.55436
20.272,-5.41217
20.280,-5.24403
20.288,-5.07511
20.296,-4.92871
20.304,-4.82498
20.312,-4.77982
20.320,-4.80402
20.328,-4.90280
20.336,-5.07571
20.344,-5.31708
20.352,-5.61670
20.360,-5.96094
20.368,-6.33391
20.376,-6.71880
20.384,-7.09918
20.392,-7.46019
20.400,-7.78953
20.408,-8.07813
20.416,-8.32054
20.424,-8.51485
20.432,-8.66236
20.440,-8.76706
20.448,-8.83485
20.456,-8.87282
20.464,-8.88854
20.472,-8.88937
20.480,-8.88203
20.488,-8.87219
20.496,-8.86435
20.504,-8.86171
20.512,-8.86624
20.520,-8.87880
20.528,-8.89936
20.536,-8.92729
20.544,-8.96164
20.552,-9.00139
20.560,-9.04548
20.568,-9.09273
20.576,-9.14147
20.584,-9.18909
20.592,-9.23137
20.600,-9.26166
20.608,-9.27020
20.616,-9.24343
20.624,-9.16356
20.632,-9.00839
20.640,-8.75155
20.648,-8.36331
20.656,-7.81184
20.664,-7.06508
20.672,-6.09310
20.680,-4.87091
20.688,-3.38134
20.696,-1.61798
20.704,0.41251
20.712,2.68875
20.720,5.17401
20.728,7.81674
20.736,10.55225
20.744,13.30542
20.752,15.99443
20.760,18.53517
20.768,20.84593
20.776,22.85211
20.784,24.49050
20.792,25.71271
20.800,26.48766
20.808,26.80269
20.816,26.66329
20.824,26.09165
20.832,25.12407
20.840,23.80767
20.848,22.19680
20.856,20.34953
20.864,18.32463
20.872,16.17919
20.880,13.96692
20.888,11.73711
20.896,9.53403
20.904,7.39664
20.912,5.35856
20.920,3.44805
20.928,1.68823
20.936,0.09729
20.944,-1.31121
20.952,-2.52811
20.960,-3.54862
20.968,-4.37247
20.976,-5.00415
20.984,-5.45327
20.992,-5.73457
21.000,-5.86780
21.008,-5.87705
21.016,-5.78981
21.024,-5.63565
21.032,-5.44469
21.040,-5.24598
21.048,-5.06587
21.056,-4.92671
21.064,-4.84574
21.072,-4.83447
21.080,-4.89845
21.088,-5.03756
21.096,-5.24663
21.104,-5.51643
21.112,-5.83464
21.120,-6.18696
21.128,-6.55815
21.136,-6.93298
21.144,-7.29729
21.152,-7.63876
21.160,-7.94773
21.168,-8.21758
21.176,-8.44489
21.184,-8.62932
21.192,-8.77314
21.200,-8.88061
21.208,-8.95738
21.216,-9.00973
21.224,-9.04396
21.232,-9.06586
21.240,-9.08028
21.248,-9.09083
21.256,-9.09972
21.264,-9.10784
21.272,-9.11501
21.280,-9.12040
21.288,-9.12312
21.296,-9.12276
21.304,-9.11983
21.312,-9.11591
21.320,-9.11341
21.328,-9.11504
21.336,-9.12283
21.344,-9.13706
21.352,-9.15512
21.360,-9.17048
21.368,-9.17189
21.376,-9.14296
21.384,-9.06200
21.392,-8.90240
21.400,-8.63336
21.408,-8.22124
21.416,-7.63136
21.424,-6.83027
21.432,-5.78842
21.440,-4.48306
21.448,-2.90096
21.456,-1.04101
21.464,1.08392
21.472,3.44592
21.480,6.00197
21.488,8.69515
21.496,11.45674
21.504,14.20936
21.512,16.87088
21.520,19.35877
21.528,21.59450
21.536,23.50772
21.544,25.03980
21.552,26.14663
21.560,26.80043
21.568,26.99072
21.576,26.72419
21.584,26.02368
21.592,24.92627
21.600,23.48067
21.608,21.74402
21.616,19.77846
21.624,17.64764
21.632,15.41371
21.640,13.13483
21.648,10.86351
21.656,8.64565
21.664,6.52025
21.672,4.51952
21.680,2.66932
21.688,0.98958
21.696,-0.50524
21.704,-1.80582
21.712,-2.90773
21.720,-3.81122
21.728,-4.52117
21.736,-5.04699
21.744,-5.40252
21.752,-5.60584
21.760,-5.67893
21.768,-5.64710
21.776,-5.53814
21.784,-5.38111
21.792,-5.20491
21.800,-5.03674
21.808,-4.90055
21.816,-4.81577
21.824,-4.79630
21.832,-4.85006
21.840,-4.97897
21.848,-5.17940
21.856,-5.44304
21.864,-5.75796
21.872,-6.10986
21.880,-6.48325
21.888,-6.86262
21.896,-7.23346
21.904,-7.58306
21.912,-7.90113
21.920,-8.18015
21.928,-8.41557
21.936,-8.60577
21.944,-8.75184
21.952,-8.85728
21.960,-8.92745
21.968,-8.96903
21.976,-8.98926
21.984,-8.99540
21.992,-8.99414
22.000,-8.99120
22.008,-8.99117
22.016,-8.99735
22.024,-9.01182
22.032,-9.03544
22.040,-9.06797
22.048,-9.10819
22.056,-9.15405
22.064,-9.20288
22.072,-9.25161
22.080,-9.29696
22.088,-9.33551
22.096,-9.36353
22.104,-9.37647
22.112,-9.36818
22.120,-9.32989
22.128,-9.24918
22.136,-9.10917
22.144,-8.88805
22.152,-8.55937
22.160,-8.09293
22.168,-7.45651
22.176,-6.61825
22.184,-5.54956
22.192,-4.22820
22.200,-2.64133
22.208,-0.78818
22.216,1.31808
22.224,3.64933
22.232,6.16260
22.240,8.80130
22.248,11.49751
22.256,14.17523
22.264,16.75426
22.272,19.15445
22.280,21.30008
22.288,23.12381
22.296,24.57026
22.304,25.59869
22.312,26.18474
22.320,26.32120
22.328,26.01765
22.336,25.29915
22.344,24.20405
22.352,22.78118
22.360,21.08673
22.368,19.18089
22.376,17.12469
22.384,14.97714
22.392,12.79280
22.400,10.62015
22.408,8.50065
22.416,6.46860
22.424,4.55153
22.432,2.77111
22.440,1.14417
22.448,-0.31641
22.456,-1.60101
22.464,-2.70311
22.472,-3.61947
22.480,-4.35061
22.488,-4.90142
22.496,-5.28179
22.504,-5.50689
22.512,-5.59708
22.520,-5.57733
22.528,-5.47609
22.536,-5.32373
22.544,-5.15070
22.552,-4.98573
22.560,-4.85403
22.568,-4.77595
22.576,-4.76594
22.584,-4.83206
22.592,-4.97592
22.600,-5.19315
22.608,-5.47423
22.616,-5.80570
22.624,-6.17151
22.632,-6.55447
22.640,-6.93765
22.648,-7.30557
22.656,-7.64519
22.664,-7.94657
22.672,-8.20329
22.680,-8.41261
22.688,-8.57522
22.696,-8.69487
22.704,-8.77768
22.712,-8.83124
22.720,-8.86367
22.728,-8.88271
22.736,-8.89491
22.744,-8.90511
22.752,-8.91631
22.760,-8.92973
22.768,-8.94530
22.776,-8.96209
22.784,-8.97893
22.792,-8.99488
22.800,-9.00954
22.808,-9.02320
22.816,-9.03662
22.824,-9.05066
22.832,-9.06559
22.840,-9.08033
22.848,-9.09157
22.856,-9.09295
22.864,-9.07435
22.872,-9.02146
22.880,-8.91554
22.888,-8.73350
22.896,-8.44833
22.904,-8.02995
22.912,-7.44649
22.920,-6.66618
22.928,-5.65974
22.936,-4.40314
22.944,-2.88066
22.952,-1.08781
22.960,0.96619
22.968,3.25663
22.976,5.74289
22.984,8.36920
22.992,11.06698
23.000,13.75825
23.008,16.35997
23.016,18.78885
23.024,20.96620
23.032,22.82245
23.040,24.30090
23.048,25.36046
23.056,25.97726
23.064,26.14490
23.072,25.87361
23.080,25.18836
23.088,24.12633
23.096,22.73394
23.104,21.06393
23.112,19.17257
23.120,17.11731
23.128,14.95495
23.136,12.74010
23.144,10.52399
23.152,8.35341
23.160,6.26980
23.168,4.30844
23.176,2.49789
23.184,0.85970
23.192,-0.59159
23.200,-1.84814
23.208,-2.90827
23.216,-3.77573
23.224,-4.45901
23.232,-4.97061
23.240,-5.32645
23.248,-5.54524
23.256,-5.64796
23.264,-5.65725
23.272,-5.59679
23.280,-5.49061
23.288,-5.36232
23.296,-5.23421
23.304,-5.12636
23.312,-5.05575
23.320,-5.03543
23.328,-5.07381
23.336,-5.17437
23.344,-5.33572
23.352,-5.55218
23.360,-5.81469
23.368,-6.11200
23.376,-6.43184
23.384,-6.76196
23.392,-7.09098
23.400,-7.40887
23.408,-7.70734
23.416,-7.97980
23.424,-8.22138
23.432,-8.42876
23.440,-8.60014
23.448,-8.73526
23.456,-8.83554
23.464,-8.90411
23.472,-8.94575
23.480,-8.96649
23.488,-8.97307
23.496,-8.97219
23.504,-8.96984
23.512,-8.97069
23.520,-8.97774
23.528,-8.99226
23.536,-9.01393
23.544,-9.04129
23.552,-9.07224
23.560,-9.10450
23.568,-9.13596
23.576,-9.16470
23.584,-9.18883
23.592,-9.20604
23.600,-9.21283
23.608,-9.20376
23.616,-9.17038
23.624,-9.10041
23.632,-8.97707
23.640,-8.77880
23.648,-8.47959
23.656,-8.04980
23.664,-7.45775
23.672,-6.67180
23.680,-5.66292
23.688,-4.40745
23.696,-2.88981
23.704,-1.10504
23.712,0.93917
23.720,3.22098
23.728,5.70370
23.736,8.33599
23.744,11.05323
23.752,13.78016
23.760,16.43451
23.768,18.93159
23.776,21.18935
23.784,23.13332
23.792,24.70117
23.800,25.84623
23.808,26.53968
23.816,26.77140
23.824,26.54939
23.832,25.89812
23.840,24.85596
23.848,23.47205
23.856,21.80285
23.864,19.90884
23.872,17.85126
23.880,15.68943
23.888,13.47852
23.896,11.26801
23.904,9.10078
23.912,7.01302
23.920,5.03454
23.928,3.18956
23.936,1.49752
23.944,-0.02621
23.952,-1.37000
23.960,-2.52602
23.968,-3.49066
23.976,-4.26506
23.984,-4.85555
23.992,-5.27382
24.000,-5.53664
24.008,-5.66512
24.016,-5.68364
24.024,-5.61859
24.032,-5.49711
24.040,-5.34586
24.048,-5.18992
24.056,-5.05181
24.064,-4.95050
24.072,-4.90068
24.080,-4.91214
24.088,-4.98950
24.096,-5.13236
24.104,-5.33578
24.112,-5.59125
24.120,-5.88779
24.128,-6.21306
24.136,-6.55434
24.144,-6.89926
24.152,-7.23632
24.160,-7.55519
24.168,-7.84708
24.176,-8.10501
24.184,-8.32415
24.192,-8.50213
24.200,-8.63917
24.208,-8.73796
24.216,-8.80328
24.224,-8.84135
24.232,-8.85912
24.240,-8.86355
24.248,-8.86094
24.256,-8.85658
24.264,-8.85449
24.272,-8.85740
24.280,-8.86688
24.288,-8.88356
24.296,-8.90749
24.304,-8.93838
24.312,-8.97582
24.320,-9.01927
24.328,-9.06791
24.336,-9.12038
24.344,-9.17440
24.352,-9.22641
24.360,-9.27113
24.368,-9.30110
24.376,-9.30619
24.384,-9.27301
24.392,-9.18446
24.400,-9.01950
24.408,-8.75323
24.416,-8.35750
24.424,-7.80188
24.432,-7.05527
24.440,-6.08797
24.448,-4.87415
24.456,-3.39474
24.464,-1.64047
24.472,0.38529
24.480,2.66403
24.488,5.16073
24.496,7.82358
24.504,10.58555
24.512,13.36742
24.520,16.08247
24.528,18.64194
24.536,20.96085
24.544,22.96345
24.552,24.58772
24.560,25.78859
24.568,26.53961
24.576,26.83312
24.584,26.67894
24.592,26.10208
24.600,25.13969
24.608,23.83775
24.616,22.24795
24.624,20.42478
24.632,18.42334
24.640,16.29757
24.648,14.09908
24.656,11.87624
24.664,9.67358
24.672,7.53131
24.680,5.48485
24.688,3.56446
24.696,1.79498
24.704,0.19565
24.712,-1.21972
24.720,-2.44260
24.728,-3.46937
24.736,-4.30103
24.744,-4.94307
24.752,-5.40533
24.760,-5.70208
24.768,-5.85186
24.776,-5.87723
24.784,-5.80408
24.792,-5.66064
24.800,-5.47618
24.808,-5.27942
24.816,-5.09700
24.824,-4.95194
24.832,-4.86229
24.840,-4.84034
24.848,-4.89215
24.856,-5.01771
24.864,-5.21152
24.872,-5.46356
24.880,-5.76060
24.888,-6.08756
24.896,-6.42885
24.904,-6.76963
24.912,-7.09676
24.920,-7.39959
24.928,-7.67042
24.936,-7.90468
24.944,-8.10091
24.952,-8.26039
24.960,-8.38669
24.968,-8.48507
24.976,-8.56184
24.984,-8.62371
24.992,-8.67713
25.000,-8.72758
25.008,-8.77901
25.016,-8.83343
25.024,-8.89081
25.032,-8.94934
25.040,-9.00607
25.048,-9.05764
25.056,-9.10118
25.064,-9.13482
25.072,-9.15800
25.080,-9.17144
25.088,-9.17678
25.096,-9.17614
25.104,-9.17148
25.112,-9.16388
25.120,-9.15268
25.128,-9.13459
25.136,-9.10267
25.144,-9.04565
25.152,-8.94727
25.160,-8.78619
25.168,-8.53611
25.176,-8.16653
25.184,-7.64397
25.192,-6.93391
25.200,-6.00332
25.208,-4.82374
25.216,-3.37459
25.224,-1.64626
25.232,0.35709
25.240,2.61572
25.248,5.09349
25.256,7.73835
25.264,10.48408
25.272,13.25333
25.280,15.96169
25.288,18.52245
25.296,20.85168
25.304,22.87311
25.312,24.52242
25.320,25.75069
25.328,26.52672
25.336,26.83803
25.344,26.69069
25.352,26.10790
25.360,25.12758
25.368,23.79926
25.376,22.18042
25.384,20.33264
25.392,18.31794
25.400,16.19556
25.408,14.01956
25.416,11.83726
25.424,9.68869
25.432,7.60689
25.440,5.61873
25.448,3.74610
25.456,2.00705
25.464,0.41682
25.472,-1.01154
25.480,-2.26703
25.488,-3.34107
25.496,-4.22825
25.504,-4.92735
25.512,-5.44225
25.520,-5.78256
25.528,-5.96378
25.536,-6.00703
25.544,-5.93816
25.552,-5.78656
25.560,-5.58355
25.568,-5.36064
25.576,-5.14766
25.584,-4.97102
25.592,-4.85219
25.600,-4.80658
25.608,-4.84290
25.616,-4.96306
25.624,-5.16257
25.632,-5.43134
25.640,-5.75483
25.648,-6.11547
25.656,-6.49429
25.664,-6.87260
25.672,-7.23358
25.680,-7.56360
25.688,-7.85306
25.696,-8.09678
25.704,-8.29387
25.712,-8.44714
25.720,-8.56216
25.728,-8.64620
25.736,-8.70710
25.744,-8.75237
25.752,-8.78852
25.760,-8.82057
25.768,-8.85191
25.776,-8.88425
25.784,-8.91780
25.792,-8.95162
25.800,-8.98414
25.808,-9.01366
25.816,-9.03891
25.824,-9.05943
25.832,-9.07582
25.840,-9.08966
25.848,-9.10319
25.856,-9.11872
25.864,-9.13772
25.872,-9.15995
25.880,-9.18243
25.888,-9.19859
25.896,-9.19752
25.904,-9.16348
25.912,-9.07576
25.920,-8.90895
25.928,-8.63363
25.936,-8.21762
25.944,-7.62771
25.952,-6.83188
25.960,-5.80178
25.968,-4.51548
25.976,-2.96000
25.984,-1.13375
25.992,0.95165
26.000,3.27019
26.008,5.78126
26.016,8.43052
26.024,11.15181
26.032,13.87010
26.040,16.50508
26.048,18.97536
26.056,21.20283
26.064,23.11696
26.072,24.65865
26.080,25.78337
26.088,26.46322
26.096,26.68792
26.104,26.46442
26.112,25.81554
26.120,24.77761
26.128,23.39751
26.136,21.72953
26.144,19.83217
26.152,17.76530
26.160,15.58767
26.168,13.35493
26.176,11.11812
26.184,8.92270
26.192,6.80794
26.200,4.80676
26.208,2.94588
26.216,1.24613
26.224,-0.27714
26.232,-1.61364
26.240,-2.75779
26.248,-3.70852
26.256,-4.46917
26.264,-5.04741
26.272,-5.45526
26.280,-5.70889
26.288,-5.82830
26.296,-5.83677
26.304,-5.76003
26.312,-5.62524
26.320,-5.45971
26.328,-5.28959
26.336,-5.13858
26.344,-5.02671
26.352,-4.96948
26.360,-4.97717
26.368,-5.05457
26.376,-5.20114
26.384,-5.41138
26.392,-5.67571
26.400,-5.98150
26.408,-6.31431
26.416,-6.65927
26.424,-7.00222
26.432,-7.33088
26.440,-7.63550
26.448,-7.90930
26.456,-8.14843
26.464,-8.35169
26.472,-8.51999
26.480,-8.65571
26.488,-8.76214
26.496,-8.84297
26.504,-8.90200
26.512,-8.94298
26.520,-8.96963
26.528,-8.98567
26.536,-8.99488
26.544,-9.00110
26.552,-9.00813
26.560,-9.01958
26.568,-9.03860
26.576,-9.06752
26.584,-9.10760
26.592,-9.15880
26.600,-9.21972
26.608,-9.28775
26.616,-9.35912
26.624,-9.42897
26.632,-9.49111
26.640,-9.53754
26.648,-9.55784
26.656,-9.53838
26.664,-9.46176
26.672,-9.30648
26.680,-9.04700
26.688,-8.65449
26.696,-8.09807
26.704,-7.34665
26.712,-6.37128
26.720,-5.14782
26.728,-3.65978
26.736,-1.90094
26.744,0.12232
26.752,2.38952
26.760,4.86538
26.768,7.50019
26.776,10.23138
26.784,12.98614
26.792,15.68490
26.800,18.24541
26.808,20.58722
26.816,22.63602
26.824,24.32775
26.832,25.61199
26.840,26.45451
26.848,26.83877
26.856,26.76628
26.864,26.25574
26.872,25.34115
26.880,24.06882
26.888,22.49380
26.896,20.67601
26.904,18.67659
26.912,16.55473
26.920,14.36533
26.928,12.15755
26.936,9.97420
26.944,7.85184
26.952,5.82134
26.960,3.90863
26.968,2.13549
26.976,0.52016
26.984,-0.92244
26.992,-2.18070
27.000,-3.24679
27.008,-4.11733
27.016,-4.79401
27.024,-5.28426
27.032,-5.60136
27.040,-5.76430
27.048,-5.79698
27.056,-5.72711
27.064,-5.58470
27.072,-5.40039
27.080,-5.20369
27.088,-5.02136
27.096,-4.87600
27.104,-4.78508
27.112,-4.76044
27.120,-4.80831
27.128,-4.92968
27.136,-5.12098
27.144,-5.37490
27.152,-5.68126
27.160,-6.02782
27.168,-6.40105
27.176,-6.78686
27.184,-7.17130
27.192,-7.54126
27.200,-7.88522
27.208,-8.19381
27.216,-8.46035
27.224,-8.68110
27.232,-8.85529
27.240,-8.98481
27.248,-9.07381
27.256,-9.12803
27.264,-9.15421
27.272,-9.15944
27.280,-9.15062
27.288,-9.13407
27.296,-9.11523
27.304,-9.09849
27.312,-9.08716
27.320,-9.08350
27.328,-9.08882
27.336,-9.10358
27.344,-9.12745
27.352,-9.15932
27.360,-9.19724
27.368,-9.23819
27.376,-9.27781
27.384,-9.31001
27.392,-9.32658
27.400,-9.31672
27.408,-9.26665
27.416,-9.15928
27.424,-8.97407
27.432,-8.68710
27.440,-8.27158
27.448,-7.69875
27.456,-6.93938
27.464,-5.96573
27.472,-4.75394
27.480,-3.28669
27.488,-1.55593
27.496,0.43464
27.504,2.66755
27.512,5.11034
27.520,7.71548
27.528,10.42130
27.536,13.15422
27.544,15.83219
27.552,18.36905
27.560,20.67959
27.568,22.68487
27.576,24.31714
27.584,25.52406
27.592,26.27163
27.600,26.54565
27.608,26.35152
27.616,25.71256
27.624,24.66728
27.632,23.26582
27.640,21.56620
27.648,19.63077
27.656,17.52290
27.664,15.30446
27.672,13.03375
27.680,10.76418
27.688,8.54329
27.696,6.41219
27.704,4.40531
27.712,2.55034
27.720,0.86838
27.728,-0.62575
27.736,-1.92313
27.744,-3.02025
27.752,-3.91854
27.760,-4.62392
27.768,-5.14654
27.776,-5.50043
27.784,-5.70325
27.792,-5.77589
27.800,-5.74197
27.808,-5.62710
27.816,-5.45801
27.824,-5.26143
27.832,-5.06297
27.840,-4.88588
27.848,-4.74991
27.856,-4.67041
27.864,-4.65767
27.872,-4.71666
27.880,-4.84720
27.888,-5.04432
27.896,-5.29904
27.904,-5.59926
27.912,-5.93084
27.920,-6.27867
27.928,-6.62776
27.936,-6.96424
27.944,-7.27619
27.952,-7.55438
27.960,-7.79280
27.968,-7.98899
27.976,-8.14404
27.984,-8.26228
27.992,-8.35069
28.000,-8.41789
28.008,-8.47320
28.016,-8.52546
28.024,-8.58221
28.032,-8.64894
28.040,-8.72871
28.048,-8.82199
28.056,-8.92676
28.064,-9.03883
28.072,-9.15236
28.080,-9.26057
28.088,-9.35651
28.096,-9.43389
28.104,-9.48778
28.112,-9.51503
28.120,-9.51426
28.128,-9.48537
28.136,-9.42846
28.144,-9.34229
28.152,-9.22254
28.160,-9.06025
28.168,-8.84055
28.176,-8.54217
28.184,-8.13784
28.192,-7.59549
28.200,-6.88045
28.208,-5.95830
28.216,-4.79827
28.224,-3.37693
28.232,-1.68164
28.240,0.28643
28.248,2.51025
28.256,4.95593
28.264,7.57315
28.272,10.29683
28.280,13.05022
28.288,15.74897
28.296,18.30599
28.304,20.63647
28.312,22.66282
28.320,24.31894
28.328,25.55366
28.336,26.33318
28.344,26.64220
28.352,26.48403
28.360,25.87953
28.368,24.86514
28.376,23.49012
28.384,21.81312
28.392,19.89841
28.400,17.81195
28.408,15.61780
28.416,13.37517
28.424,11.13640
28.432,8.94599
28.440,6.84053
28.448,4.84939
28.456,2.99566
28.464,1.29718
28.472,-0.23260
28.480,-1.58402
28.488,-2.75080
28.496,-3.73005
28.504,-4.52232
28.512,-5.13200
28.520,-5.56770
28.528,-5.84260
28.536,-5.97453
28.544,-5.98555
28.552,-5.90117
28.560,-5.74912
28.568,-5.55794
28.576,-5.35539
28.584,-5.16689
28.592,-5.01420
28.600,-4.91425
28.608,-4.87856
28.616,-4.91301
28.624,-5.01809
28.632,-5.18953
28.640,-5.41912
28.648,-5.69574
28.656,-6.00642
28.664,-6.33736
28.672,-6.67502
28.680,-7.00707
28.688,-7.32321
28.696,-7.61580
28.704,-7.88010
28.712,-8.11422
28.720,-8.31877
28.728,-8.49628
28.736,-8.65049
28.744,-8.78570
28.752,-8.90608
28.760,-9.01518
28.768,-9.11560
28.776,-9.20883
28.784,-9.29525
28.792,-9.37428
28.800,-9.44455
28.808,-9.50430
28.816,-9.55161
28.824,-9.58488
28.832,-9.60312
28.840,-9.60622
28.848,-9.59508
28.856,-9.57151
28.864,-9.53791
28.872,-9.49670
28.880,-9.44938
28.888,-9.39556
28.896,-9.33181
28.904,-9.25073
28.912,-9.14017
28.920,-8.98292
28.928,-8.75675
28.936,-8.43487
28.944,-7.98693
28.952,-7.38049
28.960,-6.58308
28.968,-5.56477
28.976,-4.30099
28.984,-2.77543
28.992,-0.98268
29.000,1.06964
29.008,3.35950
29.016,5.84997
29.024,8.48977
29.032,11.21478
29.040,13.95066
29.048,16.61639
29.056,19.12856
29.064,21.40610
29.072,23.37507
29.080,24.97290
29.088,26.15188
29.096,26.88140
29.104,27.14890
29.112,26.95952
29.120,26.33455
29.128,25.30907
29.136,23.92923
29.144,22.24916
29.152,20.32808
29.160,18.22746
29.168,16.00851
29.176,13.72994
29.184,11.44604
29.192,9.20530
29.200,7.04936
29.208,5.01268
29.216,3.12248
29.224,1.39927
29.232,-0.14251
29.240,-1.49364
29.248,-2.64933
29.256,-3.60865
29.264,-4.37414
29.272,-4.95183
29.280,-5.35140
29.288,-5.58653
29.296,-5.67514
29.304,-5.63937
29.312,-5.50520
29.320,-5.30159
29.328,-5.05910
29.336,-4.80831
29.344,-4.57798
29.352,-4.39337
29.360,-4.27478
29.368,-4.23656
29.376,-4.28662
29.384,-4.42644
29.392,-4.65153
29.400,-4.95237
29.408,-5.31567
29.416,-5.72584
29.424,-6.16643
29.432,-6.62144
29.440,-7.07616
29.448,-7.51779
29.456,-7.93553
29.464,-8.32063
29.472,-8.66615
29.480,-8.96685
29.488,-9.21902
29.496,-9.42040
29.504,-9.57019
29.512,-9.66900
29.520,-9.71893
29.528,-9.72372
29.536,-9.68875
29.544,-9.62108
29.552,-9.52929
29.560,-9.42305
29.568,-9.31251
29.576,-9.20746
29.584,-9.11640
29.592,-9.04575
29.600,-8.99916
29.608,-8.97725
29.616,-8.97763
29.624,-8.99530
29.632,-9.02316
29.640,-9.05248
29.648,-9.07329
29.656,-9.07442
29.664,-9.04325
29.672,-8.96540
29.680,-8.82431
29.688,-8.60098
29.696,-8.27403
29.704,-7.81999
29.712,-7.21413
29.720,-6.43156
29.728,-5.44889
29.736,-4.24618
29.744,-2.80914
29.752,-1.13133
29.760,0.78372
29.768,2.92094
29.776,5.25267
29.784,7.73838
29.792,10.32517
29.800,12.94931
29.808,15.53862
29.816,18.01568
29.824,20.30185
29.832,22.32164
29.840,24.00715
29.848,25.30232
29.856,26.16645
29.864,26.57677
29.872,26.52964
29.880,26.04025
29.888,25.14086
29.896,23.87770
29.904,22.30707
29.912,20.49091
29.920,18.49262
29.928,16.37338
29.936,14.18944
29.944,11.99055
29.952,9.81927
29.960,7.71123
29.968,5.69579
29.976,3.79707
29.984,2.03496
29.992,0.42590
30.000,-1.01668
30.008,-2.28233
30.016,-3.36395
30.024,-4.25831
30.032,-4.96675
30.040,-5.49568
30.048,-5.85680
30.056,-6.06691
30.064,-6.14724
30.072,-6.12244
30.080,-6.01932
30.088,-5.86548
30.096,-5.68800
30.104,-5.51230
30.112,-5.36100
30.120,-5.25301
30.128,-5.20277
30.136,-5.21964
30.144,-5.30755
30.152,-5.46498
30.160,-5.68532
30.168,-5.95753
30.176,-6.26727
30.184,-6.59828
30.192,-6.93389
30.200,-7.25853
30.208,-7.55906
30.216,-7.82579
30.224,-8.05296
30.232,-8.23884
30.240,-8.38526
30.248,-8.49682
30.256,-8.57987
30.264,-8.64142
30.272,-8.68816
30.280,-8.72572
30.288,-8.75824
30.296,-8.78820
30.304,-8.81671
30.312,-8.84382
30.320,-8.86918
30.328,-8.89247
30.336,-8.91389
30.344,-8.93429
30.352,-8.95514
30.360,-8.97830
30.368,-9.00569
30.376,-9.03887
30.384,-9.07858
30.392,-9.12427
30.400,-9.17361
30.408,-9.22182
30.416,-9.26104
30.424,-9.27962
30.432,-9.26151
30.440,-9.18588
30.448,-9.02699
30.456,-8.75464
30.464,-8.33518
30.472,-7.73324
30.480,-6.91410
30.488,-5.84670
30.496,-4.50695
30.504,-2.88101
30.512,-0.96825
30.520,1.21663
30.528,3.64259
30.536,6.26251
30.544,9.01473
30.552,11.82588
30.560,14.61459
30.568,17.29593
30.576,19.78601
30.584,22.00663
30.592,23.88930
30.600,25.37873
30.608,26.43518
30.616,27.03590
30.624,27.17545
30.632,26.86510
30.640,26.13131
30.648,25.01346
30.656,23.56114
30.664,21.83109
30.672,19.88406
30.680,17.78180
30.688,15.58427
30.696,13.34733
30.704,11.12085
30.712,8.94759
30.720,6.86261
30.728,4.89351
30.736,3.06115
30.744,1.38085
30.752,-0.13636
30.760,-1.48259
30.768,-2.65253
30.776,-3.64323
30.784,-4.45446
30.792,-5.08926
30.800,-5.55463
30.808,-5.86202
30.816,-6.02748
30.824,-6.07141
30.832,-6.01795
30.840,-5.89384
30.848,-5.72719
30.856,-5.54592
30.864,-5.37622
30.872,-5.24104
30.880,-5.15880
30.888,-5.14231
30.896,-5.19817
30.904,-5.32662
30.912,-5.52198
30.920,-5.77363
30.928,-6.06739
30.936,-6.38722
30.944,-6.71689
30.952,-7.04162
30.960,-7.34926
30.968,-7.63103
30.976,-7.88161
30.984,-8.09889
30.992,-8.28335
31.000,-8.43728
31.008,-8.56408
31.016,-8.66766
31.024,-8.75195
31.032,-8.82068
31.040,-8.87729
31.048,-8.92486
31.056,-8.96605
31.064,-9.00307
31.072,-9.03757
31.080,-9.07073
31.088,-9.10331
31.096,-9.13590
31.104,-9.16905
31.112,-9.20345
31.120,-9.23996
31.128,-9.27945
31.136,-9.32251
31.144,-9.36902
31.152,-9.41751
31.160,-9.46452
31.168,-9.50380
31.176,-9.52566
31.184,-9.51644
31.192,-9.45825
31.200,-9.32902
31.208,-9.10301
31.216,-8.75167
31.224,-8.24502
31.232,-7.55327
31.240,-6.64889
31.248,-5.50863
31.256,-4.11564
31.264,-2.46158
31.272,-0.54844
31.280,1.60978
31.288,3.98600
31.296,6.53953
31.304,9.21656
31.312,11.95175
31.320,14.67081
31.328,17.29409
31.336,19.74079
31.344,21.93339
31.352,23.80203
31.360,25.28840
31.368,26.34884
31.376,26.95632
31.384,27.10137
31.392,26.79182
31.400,26.05161
31.408,24.91857
31.416,23.44178
31.424,21.67838
31.432,19.69035
31.440,17.54137
31.448,15.29393
31.456,13.00681
31.464,10.73321
31.472,8.51934
31.480,6.40392
31.488,4.41807
31.496,2.58582
31.504,0.92485
31.512,-0.55283
31.520,-1.84012
31.528,-2.93432
31.536,-3.83688
31.544,-4.55315
31.552,-5.09242
31.560,-5.46787
31.568,-5.69656
31.576,-5.79921
31.584,-5.79961
31.592,-5.72376
31.600,-5.59866
31.608,-5.45094
31.616,-5.30547
31.624,-5.18403
31.632,-5.10423
31.640,-5.07881
31.648,-5.11535
31.656,-5.21631
31.664,-5.37952
31.672,-5.59892
31.680,-5.86552
31.688,-6.16841
31.696,-6.49569
31.704,-6.83527
31.712,-7.17552
31.720,-7.50583
31.728,-7.81700
31.736,-8.10160
31.744,-8.35416
31.752,-8.57129
31.760,-8.75161
31.768,-8.89567
31.776,-9.00562
31.784,-9.08500
31.792,-9.13828
31.800,-9.17055
31.808,-9.18705
31.816,-9.19274
31.824,-9.19199
31.832,-9.18826
31.840,-9.18409
31.848,-9.18119
31.856,-9.18066
31.864,-9.18337
31.872,-9.19018
31.880,-9.20212
31.888,-9.22026
31.896,-9.24537
31.904,-9.27718
31.912,-9.31364
31.920,-9.34998
31.928,-9.37787
31.936,-9.38475
31.944,-9.35347
31.952,-9.26221
31.960,-9.08491
31.968,-8.79207
31.976,-8.35195
31.984,-7.73225
31.992,-6.90208
32.000,-5.83431
32.008,-4.50804
32.016,-2.91114
32.024,-1.04267
32.032,1.08515
32.040,3.44559
32.048,5.99697
32.056,8.68329
32.064,11.43606
32.072,14.17734
32.080,16.82371
32.088,19.29106
32.096,21.49949
32.104,23.37805
32.112,24.86878
32.120,25.92966
32.128,26.53646
32.136,26.68320
32.144,26.38145
32.152,25.65845
32.160,24.55449
32.168,23.11973
32.176,21.41095
32.184,19.48821
32.192,17.41195
32.200,15.24039
32.208,13.02756
32.216,10.82198
32.224,8.66590
32.232,6.59517
32.240,4.63950
32.248,2.82295
32.256,1.16450
32.264,-0.32146
32.272,-1.62476
32.280,-2.73936
32.288,-3.66329
32.296,-4.39883
32.304,-4.95273
32.312,-5.33646
32.320,-5.56627
32.328,-5.66301
32.336,-5.65155
32.344,-5.55971
32.352,-5.41676
32.360,-5.25171
32.368,-5.09158
32.376,-4.95988
32.384,-4.87549
32.392,-4.85198
32.400,-4.89737
32.408,-5.01433
32.416,-5.20055
32.424,-5.44934
32.432,-5.75038
32.440,-6.09056
32.448,-6.45500
32.456,-6.82815
32.464,-7.19504
32.472,-7.54236
32.480,-7.85945
32.488,-8.13888
32.496,-8.37673
32.504,-8.57235
32.512,-8.72784
32.520,-8.84726
32.528,-8.93581
32.536,-8.99901
32.544,-9.04206
32.552,-9.06941
32.560,-9.08461
32.568,-9.09027
32.576,-9.08834
32.584,-9.08033
32.592,-9.06768
32.600,-9.05192
32.608,-9.03490
32.616,-9.01878
32.624,-9.00586
32.632,-8.99828
32.640,-8.99759
32.648,-9.00422
32.656,-9.01694
32.664,-9.03222
32.672,-9.04367
32.680,-9.04141
32.688,-9.01152
32.696,-8.93563
32.704,-8.79086
32.712,-8.55003
32.720,-8.18246
32.728,-7.65529
32.736,-6.93531
32.744,-5.99147
32.752,-4.79760
32.760,-3.33558
32.768,-1.59816
32.776,0.40846
32.784,2.66297
32.792,5.12827
32.800,7.75210
32.808,10.46883
32.816,13.20246
32.824,15.87056
32.832,18.38872
32.840,20.67537
32.848,22.65643
32.856,24.26954
32.864,25.46736
32.872,26.21981
32.880,26.51489
32.888,26.35819
32.896,25.77140
32.904,24.78992
32.912,23.45996
32.920,21.83542
32.928,19.97477
32.936,17.93810
32.944,15.78455
32.952,13.57021
32.960,11.34646
32.968,9.15888
32.976,7.04660
32.984,5.04216
32.992,3.17172
33.000,1.45552
33.008,-0.09141
33.016,-1.45865
33.024,-2.63990
33.032,-3.63259
33.040,-4.43786
33.048,-5.06057
33.056,-5.50952
33.064,-5.79756
33.072,-5.94163
33.080,-5.96252
33.088,-5.88439
33.096,-5.73387
33.104,-5.53902
33.112,-5.32795
33.120,-5.12744
33.128,-4.96152
33.136,-4.85012
33.144,-4.80805
33.152,-4.84420
33.160,-4.96122
33.168,-5.15560
33.176,-5.41824
33.184,-5.73539
33.192,-6.09011
33.200,-6.46392
33.208,-6.83862
33.216,-7.19804
33.224,-7.52940
33.232,-7.82427
33.240,-8.07871
33.248,-8.29296
33.256,-8.47053
33.264,-8.61705
33.272,-8.73906
33.280,-8.84285
33.288,-8.93363
33.296,-9.01499
33.304,-9.08871
33.312,-9.15491
33.320,-9.21241
33.328,-9.25926
33.336,-9.29334
33.344,-9.31288
33.352,-9.31701
33.360,-9.30612
33.368,-9.28202
33.376,-9.24785
33.384,-9.20777
33.392,-9.16629
33.400,-9.12740
33.408,-9.09351
33.416,-9.06425
33.424,-9.03545
33.432,-8.99810
33.440,-8.93775
33.448,-8.83426
33.456,-8.66213
33.464,-8.39130
33.472,-7.98863
33.480,-7.41983
33.488,-6.65177
33.496,-5.65509
33.504,-4.40677
33.512,-2.89268
33.520,-1.10981
33.528,0.93196
33.536,3.20863
33.544,5.68157
33.552,8.29809
33.560,10.99295
33.568,13.69101
33.576,16.31095
33.584,18.76976
33.592,20.98760
33.600,22.89253
33.608,24.42466
33.616,25.53936
33.624,26.20925
33.632,26.42489
33.640,26.19436
33.648,25.54162
33.656,24.50401
33.664,23.12918
33.672,21.47178
33.680,19.59011
33.688,17.54316
33.696,15.38813
33.704,13.17862
33.712,10.96332
33.720,8.78537
33.728,6.68207
33.736,4.68497
33.744,2.82018
33.752,1.10879
33.760,-0.43275
33.768,-1.79229
33.776,-2.96192
33.784,-3.93797
33.792,-4.72120
33.800,-5.31705
33.808,-5.73573
33.816,-5.99210
33.824,-6.10529
33.832,-6.09800
33.840,-5.99563
33.848,-5.82527
33.856,-5.61455
33.864,-5.39051
33.872,-5.17852
33.880,-5.00111
33.888,-4.87702
33.896,-4.82024
33.904,-4.83945
33.912,-4.93765
33.920,-5.11241
33.928,-5.35635
33.936,-5.65802
33.944,-6.00298
33.952,-6.37493
33.960,-6.75694
33.968,-7.13269
33.976,-7.48764
33.984,-7.81013
33.992,-8.09208
34.000,-8.32945
34.008,-8.52218
34.016,-8.67361
34.024,-8.78965
34.032,-8.87745
34.040,-8.94424
34.048,-8.99621
34.056,-9.03771
34.064,-9.07103
34.072,-9.09654
34.080,-9.11330
34.088,-9.11987
34.096,-9.11513
34.104,-9.09893
34.112,-9.07246
34.120,-9.03824
34.128,-8.99980
34.136,-8.96118
34.144,-8.92632
34.152,-8.89850
34.160,-8.87976
34.168,-8.87037
34.176,-8.86814
34.184,-8.86779
34.192,-8.86016
34.200,-8.83158
34.208,-8.76342
34.216,-8.63190
34.224,-8.40847
34.232,-8.06065
34.240,-7.55359
34.248,-6.85216
34.256,-5.92357
34.264,-4.74040
34.272,-3.28368
34.280,-1.54589
34.288,0.46659
34.296,2.73184
34.304,5.21191
34.312,7.85362
34.320,10.59063
34.328,13.34661
34.336,16.03922
34.344,18.58467
34.352,20.90233
34.360,22.91926
34.368,24.57413
34.376,25.82029
34.384,26.62774
34.392,26.98398
34.400,26.89346
34.408,26.37605
34.416,25.46455
34.424,24.20173
34.432,22.63723
34.440,20.82470
34.448,18.81915
34.456,16.67494
34.464,14.44418
34.472,12.17583
34.480,9.91520
34.488,7.70386
34.496,5.57980
34.504,3.57744
34.512,1.72758
34.520,0.05692
34.528,-1.41278
34.536,-2.66573
34.544,-3.69331
34.552,-4.49501
34.560,-5.07886
34.568,-5.46127
34.576,-5.66609
34.584,-5.72308
34.592,-5.66592
34.600,-5.52999
34.608,-5.35016
34.616,-5.15877
34.624,-4.98385
34.632,-4.84796
34.640,-4.76738
34.648,-4.75195
34.656,-4.80530
34.664,-4.92561
34.672,-5.10660
34.680,-5.33870
34.688,-5.61032
34.696,-5.90891
34.704,-6.22189
34.712,-6.53735
34.720,-6.84446
34.728,-7.13374
34.736,-7.39728
34.744,-7.62903
34.752,-7.82509
34.760,-7.98407
34.768,-8.10726
34.776,-8.19860
34.784,-8.26419
34.792,-8.31153
34.800,-8.34848
34.808,-8.38224
34.816,-8.41847
34.824,-8.46084
34.832,-8.51084
34.840,-8.56803
34.848,-8.63052
34.856,-8.69553
34.864,-8.75999
34.872,-8.82106
34.880,-8.87648
34.888,-8.92492
34.896,-8.96616
34.904,-9.00115
34.912,-9.03179
34.920,-9.06036
34.928,-9.08856
34.936,-9.11631
34.944,-9.14040
34.952,-9.15328
34.960,-9.14213
34.968,-9.08844
34.976,-8.96810
34.984,-8.75199
34.992,-8.40730
35.000,-7.89920
35.008,-7.19310
35.016,-6.25725
35.024,-5.06552
35.032,-3.60032
35.040,-1.85524
35.048,0.16273
35.056,2.43177
35.064,4.91470
35.072,7.55960
35.080,10.30162
35.088,13.06573
35.096,15.77044
35.104,18.33204
35.112,20.66909
35.120,22.70692
35.128,24.38167
35.136,25.64351
35.144,26.45904
35.152,26.81241
35.160,26.70547
35.168,26.15675
35.176,25.19951
35.184,23.87897
35.192,22.24912
35.200,20.36942
35.208,18.30163
35.216,16.10695
35.224,13.84373
35.232,11.56558
35.240,9.32019
35.248,7.14856
35.256,5.08483
35.264,3.15651
35.272,1.38513
35.280,-0.21301
35.288,-1.62606
35.296,-2.84599
35.304,-3.86827
35.312,-4.69195
35.320,-5.31999
35.328,-5.75987
35.336,-6.02419
35.344,-6.13101
35.352,-6.10381
35.360,-5.97083
35.368,-5.76378
35.376,-5.51608
35.384,-5.26066
35.392,-5.02774
35.400,-4.84284
35.408,-4.72519
35.416,-4.68697
35.424,-4.73312
35.432,-4.86193
35.440,-5.06603
35.448,-5.33385
35.456,-5.65104
35.464,-6.00194
35.472,-6.37084
35.480,-6.74300
35.488,-7.10537
35.496,-7.44713
35.504,-7.76001
35.512,-8.03846
35.520,-8.27968
35.528,-8.48335
35.536,-8.65129
35.544,-8.78684
35.552,-8.89428
35.560,-8.97823
35.568,-9.04328
35.576,-9.09360
35.584,-9.13280
35.592,-9.16375
35.600,-9.18856
35.608,-9.20857
35.616,-9.22443
35.624,-9.23628
35.632,-9.24391
35.640,-9.24705
35.648,-9.24561
35.656,-9.23996
35.664,-9.23099
35.672,-9.21992
35.680,-9.20788
35.688,-9.19511
35.696,-9.17994
35.704,-9.15787
35.712,-9.12062
35.720,-9.05560
35.728,-8.94561
35.736,-8.76891
35.744,-8.49967
35.752,-8.10872
35.760,-7.56470
35.768,-6.83557
35.776,-5.89067
35.784,-4.70324
35.792,-3.25332
35.800,-1.53070
35.808,0.46225
35.816,2.70856
35.824,5.17537
35.832,7.81404
35.840,10.56139
35.848,13.34233
35.856,16.07354
35.864,18.66810
35.872,21.04053
35.880,23.11189
35.888,24.81453
35.896,26.09586
35.904,26.92109
35.912,27.27436
35.920,27.15861
35.928,26.59414
35.936,25.61626
35.944,24.27241
35.952,22.61887
35.960,20.71758
35.968,18.63288
35.976,16.42860
35.984,14.16535
35.992,11.89835
36.000,9.67583
36.008,7.53823
36.016,5.51805
36.024,3.64025
36.032,1.92314
36.040,0.37936
36.048,-0.98299
36.056,-2.15958
36.064,-3.14924
36.072,-3.95399
36.080,-4.57929
36.088,-5.03462
36.096,-5.33392
36.104,-5.49578
36.112,-5.54306
36.120,-5.50207
36.128,-5.40108
36.136,-5.26865
36.144,-5.13183
36.152,-5.01451
36.160,-4.93612
36.168,-4.91082
36.176,-4.94719
36.184,-5.04837
36.192,-5.21267
36.200,-5.43437
36.208,-5.70475
36.216,-6.01306
36.224,-6.34750
36.232,-6.69593
36.240,-7.04651
36.248,-7.38823
36.256,-7.71126
36.264,-8.00731
36.272,-8.27004
36.280,-8.49531
36.288,-8.68147
36.296,-8.82943
36.304,-8.94241
36.312,-9.02541
36.320,-9.08446
36.328,-9.12568
36.336,-9.15455
36.344,-9.17539
36.352,-9.19110
36.360,-9.20334
36.368,-9.21278
36.376,-9.21961
36.384,-9.22399
36.392,-9.22637
36.400,-9.22772
36.408,-9.22962
36.416,-9.23411
36.424,-9.24342
36.432,-9.25935
36.440,-9.28248
36.448,-9.31128
36.456,-9.34106
36.464,-9.36316
36.472,-9.36427
36.480,-9.32607
36.488,-9.22523
36.496,-9.03385
36.504,-8.72041
36.512,-8.25117
36.520,-7.59218
36.528,-6.71166
36.536,-5.58266
36.544,-4.18593
36.552,-2.51244
36.560,-0.56569
36.568,1.63674
36.576,4.06243
36.584,6.66441
36.592,9.38242
36.600,12.14526
36.608,14.87399
36.616,17.48595
36.624,19.89920
36.632,22.03708
36.640,23.83248
36.648,25.23150
36.656,26.19617
36.664,26.70600
36.672,26.75834
36.680,26.36753
36.688,25.56301
36.696,24.38653
36.704,22.88901
36.712,21.12706
36.720,19.15969
36.728,17.04554
36.736,14.84055
36.744,12.59646
36.752,10.35990
36.760,8.17205
36.768,6.06872
36.776,4.08059
36.784,2.23357
36.792,0.54899
36.800,-0.95627
36.808,-2.26980
36.816,-3.38379
36.824,-4.29522
36.832,-5.00617
36.840,-5.52398
36.848,-5.86148
36.856,-6.03685
36.864,-6.07337
36.872,-5.99859
36.880,-5.84316
36.888,-5.63917
36.896,-5.41827
36.904,-5.20978
36.912,-5.03899
36.920,-4.92589
36.928,-4.88439
36.936,-4.92192
36.944,-5.03963
36.952,-5.23283
36.960,-5.49180
36.968,-5.80283
36.976,-6.14958
36.984,-6.51446
36.992,-6.88022
37.000,-7.23134
37.008,-7.55525
37.016,-7.84306
37.024,-8.08987
37.032,-8.29461
37.040,-8.45948
37.048,-8.58917
37.056,-8.68995
37.064,-8.76874
37.072,-8.83222
37.080,-8.88613
37.088,-8.93466
37.096,-8.98029
37.104,-9.02383
37.112,-9.06485
37.120,-9.10223
37.128,-9.13484
37.136,-9.16202
37.144,-9.18402
37.152,-9.20201
37.160,-9.21786
37.168,-9.23368
37.176,-9.25109
37.184,-9.27064
37.192,-9.29102
37.200,-9.30842
37.208,-9.31598
37.216,-9.30326
37.224,-9.25597
37.232,-9.15589
37.240,-8.98110
37.248,-8.70639
37.256,-8.30410
37.264,-7.74523
37.272,-7.00095
37.280,-6.04439
37.288,-4.85278
37.296,-3.40985
37.304,-1.70832
37.312,0.24779
37.320,2.44130
37.328,4.84076
37.336,7.40042
37.344,10.06131
37.352,12.75361
37.360,15.40004
37.368,17.91994
37.376,20.23385
37.384,22.26789
37.392,23.95780
37.400,25.25225
37.408,26.11517
37.416,26.52705
37.424,26.48520
37.432,26.00299
37.440,25.10851
37.448,23.84242
37.456,22.25559
37.464,20.40621
37.472,18.35679
37.480,16.17098
37.488,13.91063
37.496,11.63313
37.504,9.38936
37.512,7.22252
37.520,5.16763
37.528,3.25192
37.536,1.49570
37.544,-0.08645
37.552,-1.48456
37.560,-2.69256
37.568,-3.70791
37.576,-4.53164
37.584,-5.16873
37.592,-5.62841
37.600,-5.92445
37.608,-6.07504
37.616,-6.10241
37.624,-6.03204
37.632,-5.89162
37.640,-5.70971
37.648,-5.51430
37.656,-5.33137
37.664,-5.18346
37.672,-5.08849
37.680,-5.05896
37.688,-5.10144
37.696,-5.21663
37.704,-5.39991
37.712,-5.64213
37.720,-5.93088
37.728,-6.25165
37.736,-6.58907
37.744,-6.92809
37.752,-7.25488
37.760,-7.55768
37.768,-7.82736
37.776,-8.05774
37.784,-8.24570
37.792,-8.39092
37.800,-8.49564
37.808,-8.56409
37.816,-8.60202
37.824,-8.61611
37.832,-8.61336
37.840,-8.60057
37.848,-8.58383
37.856,-8.56821
37.864,-8.55758
37.872,-8.55465
37.880,-8.56114
37.888,-8.57794
37.896,-8.60537
37.904,-8.64319
37.912,-8.69058
37.920,-8.74599
37.928,-8.80690
37.936,-8.86957
37.944,-8.92868
37.952,-8.97695
37.960,-9.00461
37.968,-8.99872
37.976,-8.94260
37.984,-8.81536
37.992,-8.59187
38.000,-8.24333
38.008,-7.73847
38.016,-7.04547
38.024,-6.13433
38.032,-4.97957
38.040,-3.56306
38.048,-1.87661
38.056,0.07575
38.064,2.27598
38.072,4.69111
38.080,7.27323
38.088,9.96072
38.096,12.68061
38.104,15.35224
38.112,17.89166
38.120,20.21667
38.128,22.25173
38.136,23.93252
38.144,25.20945
38.152,26.04998
38.160,26.43966
38.168,26.38179
38.176,25.89590
38.184,25.01524
38.192,23.78376
38.200,22.25272
38.208,20.47756
38.216,18.51508
38.224,16.42104
38.232,14.24852
38.240,12.04668
38.248,9.86015
38.256,7.72880
38.264,5.68777
38.272,3.76756
38.280,1.99406
38.288,0.38838
38.296,-1.03350
38.304,-2.26117
38.312,-3.29007
38.320,-4.12160
38.328,-4.76291
38.336,-5.22641
38.344,-5.52906
38.352,-5.69156
38.360,-5.73755
38.368,-5.69265
38.376,-5.58357
38.384,-5.43705
38.392,-5.27871
38.400,-5.13194
38.408,-5.01689
38.416,-4.94957
38.424,-4.94134
38.432,-4.99864
38.440,-5.12305
38.448,-5.31160
38.456,-5.55736
38.464,-5.85018
38.472,-6.17759
38.480,-6.52574
38.488,-6.88044
38.496,-7.22805
38.504,-7.55637
38.512,-7.85539
38.520,-8.11777
38.528,-8.33919
38.536,-8.51839
38.544,-8.65693
38.552,-8.75866
38.560,-8.82912
38.568,-8.87484
38.576,-8.90269
38.584,-8.91929
38.592,-8.93059
38.600,-8.94149
38.608,-8.95574
38.616,-8.97582
38.624,-9.00310
38.632,-9.03796
38.640,-9.08005
38.648,-9.12841
38.656,-9.18163
38.664,-9.23784
38.672,-9.29478
38.680,-9.34962
38.688,-9.39882
38.696,-9.43800
38.704,-9.46158
38.712,-9.46259
38.720,-9.43220
38.728,-9.35932
38.736,-9.23000
38.744,-9.02694
38.752,-8.72917
38.760,-8.31212
38.768,-7.74818
38.776,-7.00803
38.784,-6.06261
38.792,-4.88574
38.800,-3.45714
38.808,-1.76557
38.816,0.18843
38.824,2.39041
38.832,4.81076
38.840,7.40455
38.848,10.11260
38.856,12.86362
38.864,15.57747
38.872,18.16923
38.880,20.55385
38.888,22.65098
38.896,24.38967
38.904,25.71254
38.912,26.57904
38.920,26.96762
38.928,26.87665
38.936,26.32380
38.944,25.34428
38.952,23.98770
38.960,22.31418
38.968,20.39009
38.976,18.28373
38.984,16.06153
38.992,13.78508
39.000,11.50902
39.008,9.27993
39.016,7.13608
39.024,5.10779
39.032,3.21831
39.040,1.48492
39.048,-0.08000
39.056,-1.46790
39.064,-2.67338
39.072,-3.69370
39.080,-4.52872
39.088,-5.18107
39.096,-5.65663
39.104,-5.96518
39.112,-6.12098
39.120,-6.14317
39.128,-6.05573
39.136,-5.88681
39.144,-5.66757
39.152,-5.43028
39.160,-5.20617
39.168,-5.02315
39.176,-4.90376
39.184,-4.86370
39.192,-4.91098
39.200,-5.04599
39.208,-5.26224
39.216,-5.54782
39.224,-5.88716
39.232,-6.26295
39.240,-6.65774
39.248,-7.05525
39.256,-7.44123
39.264,-7.80385
39.272,-8.13393
39.280,-8.42495
39.288,-8.67293
39.296,-8.87643
39.304,-9.03633
39.312,-9.15570
39.320,-9.23952
39.328,-9.29438
39.336,-9.32789
39.344,-9.34805
39.352,-9.36246
39.360,-9.37761
39.368,-9.39825
39.376,-9.42715
39.384,-9.46506
39.392,-9.51090
39.400,-9.56217
39.408,-9.61544
39.416,-9.66690
39.424,-9.71293
39.432,-9.75072
39.440,-9.77868
39.448,-9.79664
39.456,-9.80555
39.464,-9.80671
39.472,-9.80035
39.480,-9.78393
39.488,-9.75017
39.496,-9.68545
39.504,-9.56871
39.512,-9.37132
39.520,-9.05819
39.528,-8.58991
39.536,-7.92604
39.544,-7.02896
39.552,-5.86809
39.560,-4.42388
39.568,-2.69134
39.576,-0.68250
39.584,1.57243
39.592,4.02566
39.600,6.61412
39.608,9.26369
39.616,11.89475
39.624,14.42867
39.632,16.79429
39.640,18.93366
39.648,20.80593
39.656,22.38906
39.664,23.67860
39.672,24.68404
39.680,25.42315
39.688,25.91555
39.696,26.17705
39.704,26.21584
39.712,26.03132
39.720,25.61563
39.728,24.95727
39.736,24.04582
39.744,22.87667
39.752,21.45490
39.760,19.79743
39.768,17.93344
39.776,15.90296
39.784,13.75408
39.792,11.53935
39.800,9.31201
39.808,7.12259
39.816,5.01629
39.824,3.03137
39.832,1.19844
39.840,-0.45946
39.848,-1.92631
39.856,-3.19237
39.864,-4.25350
39.872,-5.11075
39.880,-5.77014
39.888,-6.24256
39.896,-6.54373
39.904,-6.69382
39.912,-6.71694
39.920,-6.64004
39.928,-6.49169
39.936,-6.30056
39.944,-6.09404
39.952,-5.89690
39.960,-5.73034
39.968,-5.61126
39.976,-5.55193
39.984,-5.55993
39.992,-5.63826
40.000,-5.78570
40.008,-5.99729
40.016,-6.26482
40.024,-6.57752
40.032,-6.92269
40.040,-7.28645
40.048,-7.65445
40.056,-8.01267
40.064,-8.34823
40.072,-8.65013
40.080,-8.90999
40.088,-9.12262
40.096,-9.28636
40.104,-9.40310
40.112,-9.47795
40.120,-9.51853
40.128,-9.53398
40.136,-9.53390
40.144,-9.52722
40.152,-9.52131
40.160,-9.52137
40.168,-9.53010
40.176,-9.54776
40.184,-9.57250
40.192,-9.60108
40.200,-9.62952
40.208,-9.65402
40.216,-9.67152
40.224,-9.68012
40.232,-9.67913
40.240,-9.66888
40.248,-9.65013
40.256,-9.62334
40.264,-9.58760
40.272,-9.53946
40.280,-9.47175
40.288,-9.37247
40.296,-9.22423
40.304,-9.00404
40.312,-8.68381
40.320,-8.23143
40.328,-7.61256
40.336,-6.79298
40.344,-5.74143
40.352,-4.43283
40.360,-2.85145
40.368,-0.99386
40.376,1.12885
40.384,3.48965
40.392,6.04546
40.400,8.73831
40.408,11.49774
40.416,14.24438
40.424,16.89423
40.432,19.36325
40.440,21.57198
40.448,23.44986
40.456,24.93892
40.464,25.99669
40.472,26.59802
40.480,26.73571
40.488,26.42005
40.496,25.67722
40.504,24.54694
40.512,23.07950
40.520,21.33242
40.528,19.36709
40.536,17.24557
40.544,15.02793
40.552,12.77016
40.560,10.52269
40.568,8.32955
40.576,6.22798
40.584,4.24845
40.592,2.41500
40.600,0.74576
40.608,-0.74637
40.616,-2.05310
40.624,-3.17016
40.632,-4.09698
40.640,-4.83650
40.648,-5.39524
40.656,-5.78338
40.664,-6.01483
40.672,-6.10730
40.680,-6.08216
40.688,-5.96395
40.696,-5.77967
40.704,-5.55765
40.712,-5.32618
40.720,-5.11189
40.728,-4.93813
40.736,-4.82349
40.744,-4.78067
40.752,-4.81594
40.760,-4.92931
40.768,-5.11527
40.776,-5.36399
40.784,-5.66275
40.792,-5.99734
40.800,-6.35323
40.808,-6.71643
40.816,-7.07419
40.824,-7.41532
40.832,-7.73049
40.840,-8.01236
40.848,-8.25560
40.856,-8.45697
40.864,-8.61533
40.872,-8.73153
40.880,-8.80833
40.888,-8.85005
40.896,-8.86223
40.904,-8.85118
40.912,-8.82350
40.920,-8.78565
40.928,-8.74355
40.936,-8.70238
40.944,-8.66653
40.952,-8.63963
40.960,-8.62462
40.968,-8.62386
40.976,-8.63907
40.984,-8.67126
40.992,-8.72051
41.000,-8.78552
41.008,-8.86304
41.016,-8.94707
41.024,-9.02811
41.032,-9.09250
41.040,-9.12206
41.048,-9.09419
41.056,-8.98233
41.064,-8.75697
41.072,-8.38699
41.080,-7.84130
41.088,-7.09081
41.096,-6.11037
41.104,-4.88078
41.112,-3.39068
41.120,-1.63833
41.128,0.36695
41.136,2.60362
41.144,5.03737
41.152,7.62134
41.160,10.29709
41.168,12.99664
41.176,15.64523
41.184,18.16500
41.192,20.47903
41.200,22.51568
41.208,24.21258
41.216,25.52007
41.224,26.40365
41.232,26.84536
41.240,26.84394
41.248,26.41397
41.256,25.58414
41.264,24.39474
41.272,22.89487
41.280,21.13923
41.288,19.18508
41.296,17.08939
41.304,14.90647
41.312,12.68632
41.320,10.47356
41.328,8.30707
41.336,6.22020
41.344,4.24133
41.352,2.39460
41.360,0.70060
41.368,-0.82325
41.376,-2.16267
41.384,-3.30686
41.392,-4.24921
41.400,-4.98820
41.408,-5.52834
41.416,-5.88081
41.424,-6.06366
41.432,-6.10146
41.440,-6.02421
41.448,-5.86566
41.456,-5.66114
41.464,-5.44514
41.472,-5.24888
41.480,-5.09832
41.488,-5.01261
41.496,-5.00335
41.504,-5.07450
41.512,-5.22297
41.520,-5.43981
41.528,-5.71169
41.536,-6.02261
41.544,-6.35562
41.552,-6.69437
41.560,-7.02433
41.568,-7.33367
41.576,-7.61374
41.584,-7.85925
41.592,-8.06808
41.600,-8.24093
41.608,-8.38070
41.616,-8.49194
41.624,-8.58025
41.632,-8.65179
41.640,-8.71283
41.648,-8.76928
41.656,-8.82635
41.664,-8.88806
41.672,-8.95695
41.680,-9.03386
41.688,-9.11778
41.696,-9.20612
41.704,-9.29493
41.712,-9.37956
41.720,-9.45532
41.728,-9.51812
41.736,-9.56514
41.744,-9.59502
41.752,-9.60779
41.760,-9.60441
41.768,-9.58596
41.776,-9.55246
41.784,-9.50160
41.792,-9.42737
41.800,-9.31896
41.808,-9.15992
41.816,-8.92803
41.824,-8.59579
41.832,-8.13164
41.840,-7.50194
41.848,-6.67337
41.856,-5.61582
41.864,-4.30537
41.872,-2.72720
41.880,-0.87810
41.888,1.23154
41.896,3.57646
41.904,6.11621
41.912,8.79585
41.920,11.54779
41.928,14.29462
41.936,16.95294
41.944,19.43787
41.952,21.66783
41.960,23.56938
41.968,25.08147
41.976,26.15884
41.984,26.77424
41.992,26.91928
42.000,26.60398
42.008,25.85514
42.016,24.71366
42.024,23.23140
42.032,21.46763
42.040,19.48557
42.048,17.34906
42.056,15.11972
42.064,12.85460
42.072,10.60449
42.080,8.41299
42.088,6.31618
42.096,4.34298
42.104,2.51593
42.112,0.85219
42.120,-0.63551
42.128,-1.93821
42.136,-3.05040
42.144,-3.97018
42.152,-4.69967
42.160,-5.24560
42.168,-5.61974
42.176,-5.83907
42.184,-5.92548
42.192,-5.90489
42.200,-5.80600
42.208,-5.65857
42.216,-5.49159
42.224,-5.33153
42.232,-5.20077
42.240,-5.11656
42.248,-5.09043
42.256,-5.12818
42.264,-5.23029
42.272,-5.39271
42.280,-5.60788
42.288,-5.86588
42.296,-6.15541
42.304,-6.46477
42.312,-6.78259
42.320,-7.09840
42.328,-7.40301
42.336,-7.68886
42.344,-7.95018
42.352,-8.18314
42.360,-8.38582
42.368,-8.55805
42.376,-8.70116
42.384,-8.81754
42.392,-8.91020
42.400,-8.98236
42.408,-9.03701
42.416,-9.07667
42.424,-9.10325
42.432,-9.11815
42.440,-9.12248
42.448,-9.11745
42.456,-9.10470
42.464,-9.08661
42.472,-9.06638
42.480,-9.04781
42.488,-9.03483
42.496,-9.03086
42.504,-9.03792
42.512,-9.05569
42.520,-9.08076
42.528,-9.10591
42.536,-9.11971
42.544,-9.10638
42.552,-9.04594
42.560,-8.91462
42.568,-8.68551
42.576,-8.32949
42.584,-7.81636
42.592,-7.11622
42.600,-6.20124
42.608,-5.04763
42.616,-3.63793
42.624,-1.96337
42.632,-0.02631
42.640,2.15782
42.648,4.55914
42.656,7.13302
42.664,9.82086
42.672,12.55222
42.680,15.24803
42.688,17.82477
42.696,20.19920
42.704,22.29320
42.712,24.03827
42.720,25.37945
42.728,26.27814
42.736,26.71382
42.744,26.68450
42.752,26.20591
42.760,25.30968
42.768,24.04054
42.776,22.45290
42.784,20.60709
42.792,18.56571
42.800,16.39033
42.808,14.13910
42.816,11.86516
42.824,9.61580
42.832,7.43235
42.840,5.35027
42.848,3.39954
42.856,1.60493
42.864,-0.01381
42.872,-1.44198
42.880,-2.67004
42.888,-3.69379
42.896,-4.51452
42.904,-5.13896
42.912,-5.57908
42.920,-5.85163
42.928,-5.97750
42.936,-5.98092
42.944,-5.88852
42.952,-5.72824
42.960,-5.52827
42.968,-5.31579
42.976,-5.11582
42.984,-4.95010
42.992,-4.83604
43.000,-4.78603
43.008,-4.80698
43.016,-4.90037
43.024,-5.06259
43.032,-5.28568
43.040,-5.55845
43.048,-5.86767
43.056,-6.19940
43.064,-6.54009
43.072,-6.87755
43.080,-7.20155
43.088,-7.50427
43.096,-7.78045
43.104,-8.02737
43.112,-8.24462
43.120,-8.43365
43.128,-8.59725
43.136,-8.73887
43.144,-8.86203
43.152,-8.96970
43.160,-9.06377
43.168,-9.14489
43.176,-9.21243
43.184,-9.26498
43.192,-9.30093
43.200,-9.31917
43.208,-9.31975
43.216,-9.30413
43.224,-9.27520
43.232,-9.23690
43.240,-9.19365
43.248,-9.14959
43.256,-9.10783
43.264,-9.06968
43.272,-9.03389
43.280,-8.99592
43.288,-8.94725
43.296,-8.87469
43.304,-8.76002
43.312,-8.57999
43.320,-8.30680
43.328,-7.90914
43.336,-7.35376
43.344,-6.60742
43.352,-5.63918
43.360,-4.42304
43.368,-2.94071
43.376,-1.18440
43.384,0.84070
43.392,3.11451
43.400,5.60102
43.408,8.24837
43.416,10.99029
43.424,13.74879
43.432,16.43798
43.440,18.96899
43.448,21.25526
43.456,23.21800
43.464,24.79113
43.472,25.92514
43.480,26.58963
43.488,26.77432
43.496,26.48862
43.504,25.75982
43.512,24.63037
43.520,23.15423
43.528,21.39293
43.536,19.41163
43.544,17.27536
43.552,15.04588
43.560,12.77936
43.568,10.52497
43.576,8.32448
43.584,6.21257
43.592,4.21772
43.600,2.36327
43.608,0.66841
43.616,-0.85112
43.624,-2.18288
43.632,-3.31802
43.640,-4.25199
43.648,-4.98543
43.656,-5.52489
43.664,-5.88325
43.672,-6.07942
43.680,-6.13750
43.688,-6.08540
43.696,-5.95313
43.704,-5.77112
43.712,-5.56860
43.720,-5.37227
43.728,-5.20521
43.736,-5.08597
43.744,-5.02794
43.752,-5.03894
43.760,-5.12102
43.768,-5.27068
43.776,-5.47947
43.784,-5.73503
43.792,-6.02244
43.800,-6.32589
43.808,-6.63033
43.816,-6.92300
43.824,-7.19451
43.832,-7.43947
43.840,-7.65644
43.848,-7.84739
43.856,-8.01668
43.864,-8.16984
43.872,-8.31236
43.880,-8.44882
43.888,-8.58229
43.896,-8.71427
43.904,-8.84476
43.912,-8.97266
43.920,-9.09616
43.928,-9.21300
43.936,-9.32077
43.944,-9.41700
43.952,-9.49918
43.960,-9.56491
43.968,-9.61191
43.976,-9.63834
43.984,-9.64307
43.992,-9.62592
44.000,-9.58784
44.008,-9.53083
44.016,-9.45765
44.024,-9.37114
44.032,-9.27325
44.040,-9.16377
44.048,-9.03885
44.056,-8.88946
44.064,-8.70023
44.072,-8.44868
44.080,-8.10538
44.088,-7.63505
44.096,-6.99875
44.104,-6.15695
44.112,-5.07329
44.120,-3.71859
44.128,-2.07473
44.136,-0.13795
44.144,2.07874
44.152,4.54445
44.160,7.21057
44.168,10.01240
44.176,12.87205
44.184,15.70252
44.192,18.41264
44.200,20.91233
44.208,23.11786
44.216,24.95662
44.224,26.37097
44.232,27.32109
44.240,27.78638
44.248,27.76565
44.256,27.27602
44.264,26.35085
44.272,25.03691
44.280,23.39108
44.288,21.47681
44.296,19.36070
44.304,17.10926
44.312,14.78619
44.320,12.45013
44.328,10.15298
44.336,7.93887
44.344,5.84350
44.352,3.89416
44.360,2.11009
44.368,0.50329
44.376,-0.92026
44.384,-2.15932
44.392,-3.21604
44.400,-4.09493
44.408,-4.80222
44.416,-5.34560
44.424,-5.73444
44.432,-5.98022
44.440,-6.09706
44.448,-6.10212
44.456,-6.01569
44.464,-5.86087
44.472,-5.66288
44.480,-5.44787
44.488,-5.24154
44.496,-5.06760
44.504,-4.94628
44.512,-4.89313
44.520,-4.91803
44.528,-5.02473
44.536,-5.21088
44.544,-5.46849
44.552,-5.78493
44.560,-6.14428
44.568,-6.52890
44.576,-6.92102
44.584,-7.30417
44.592,-7.66442
44.600,-7.99108
44.608,-8.27718
44.616,-8.51942
44.624,-8.71780
44.632,-8.87500
44.640,-8.99550
44.648,-9.08472
44.656,-9.14828
44.664,-9.19148
44.672,-9.21892
44.680,-9.23444
44.688,-9.24103
44.696,-9.24090
44.704,-9.23557
44.712,-9.22605
44.720,-9.21314
44.728,-9.19767
44.736,-9.18076
44.744,-9.16391
44.752,-9.14881
44.760,-9.13706
44.768,-9.12961
44.776,-9.12622
44.784,-9.12484
44.792,-9.12104
44.800,-9.10746
44.808,-9.07332
44.816,-9.00390
44.824,-8.88021
44.832,-8.67873
44.840,-8.37167
44.848,-7.92783
44.856,-7.31411
44.864,-6.49781
44.872,-5.44941
44.880,-4.14564
44.888,-2.57244
44.896,-0.72765
44.904,1.37700
44.912,3.71485
44.920,6.24426
44.928,8.90977
44.936,11.64430
44.944,14.37226
44.952,17.01332
44.960,19.48653
44.968,21.71457
44.976,23.62766
44.984,25.16712
44.992,26.28811
45.000,26.96150
45.008,27.17487
45.016,26.93244
45.024,26.25422
45.032,25.17438
45.040,23.73894
45.048,22.00300
45.056,20.02769
45.064,17.87691
45.072,15.61435
45.080,13.30074
45.088,10.99177
45.096,8.73647
45.104,6.57644
45.112,4.54551
45.120,2.66997
45.128,0.96901
45.136,-0.54450
45.144,-1.86332
45.152,-2.98498
45.160,-3.91116
45.168,-4.64724
45.176,-5.20205
45.184,-5.58787
45.192,-5.82058
45.200,-5.91962
45.208,-5.90788
45.216,-5.81116
45.224,-5.65732
45.232,-5.47504
45.240,-5.29232
45.248,-5.13479
45.256,-5.02414
45.264,-4.97670
45.272,-5.00248
45.280,-5.10474
45.288,-5.28026
45.296,-5.52015
45.304,-5.81107
45.312,-6.13693
45.320,-6.48060
45.328,-6.82561
45.336,-7.15764
45.344,-7.46563
45.352,-7.74233
45.360,-7.98441
45.368,-8.19199
45.376,-8.36777
45.384,-8.51600
45.392,-8.64142
45.400,-8.74832
45.408,-8.84000
45.416,-8.91859
45.424,-8.98518
45.432,-9.04019
45.440,-9.08385
45.448,-9.11659
45.456,-9.13931
45.464,-9.15356
45.472,-9.16149
45.480,-9.16582
45.488,-9.16969
45.496,-9.17643
45.504,-9.18928
45.512,-9.21083
45.520,-9.24244
45.528,-9.28352
45.536,-9.33093
45.544,-9.37852
45.552,-9.41676
45.560,-9.43269
45.568,-9.40998
45.576,-9.32905
45.584,-9.16735
45.592,-8.89966
45.600,-8.49873
45.608,-7.93602
45.616,-7.18306
45.624,-6.21316
45.632,-5.00366
45.640,-3.53843
45.648,-1.81052
45.656,0.17540
45.664,2.40121
45.672,4.83435
45.680,7.42796
45.688,10.12231
45.696,12.84727
45.704,15.52582
45.712,18.07811
45.720,20.42591
45.728,22.49692
45.736,24.22859
45.744,25.57130
45.752,26.49045
45.760,26.96764
45.768,27.00074
45.776,26.60294
45.784,25.80101
45.792,24.63301
45.800,23.14561
45.808,21.39147
45.816,19.42657
45.824,17.30785
45.832,15.09115
45.840,12.82943
45.848,10.57148
45.856,8.36087
45.864,6.23533
45.872,4.22642
45.880,2.35966
45.888,0.65477
45.896,-0.87371
45.904,-2.21586
45.912,-3.36579
45.920,-4.32138
45.928,-5.08426
45.936,-5.66000
45.944,-6.05851
45.952,-6.29436
45.960,-6.38677
45.968,-6.35936
45.976,-6.23926
45.984,-6.05591
45.992,-5.83944
46.000,-5.61907
46.008,-5.42143
46.016,-5.26920
46.024,-5.17999
46.032,-5.16552
46.040,-5.23121
46.048,-5.37621
46.056,-5.59379
46.064,-5.87229
46.072,-6.19644
46.080,-6.54895
46.088,-6.91223
46.096,-7.26999
46.104,-7.60842
46.112,-7.91705
46.120,-8.18904
46.128,-8.42122
46.136,-8.61372
46.144,-8.76936
46.152,-8.89291
46.160,-8.99013
46.168,-9.06689
46.176,-9.12834
46.184,-9.17832
46.192,-9.21906
46.200,-9.25129
46.208,-9.27459
46.216,-9.28803
46.224,-9.29083
46.232,-9.28291
46.240,-9.26510
46.248,-9.23915
46.256,-9.20749
46.264,-9.17285
46.272,-9.13797
46.280,-9.10524
46.288,-9.07647
46.296,-9.05238
46.304,-9.03200
46.312,-9.01178
46.320,-8.98463
46.328,-8.93899
46.336,-8.85804
46.344,-8.71942
46.352,-8.49536
46.360,-8.15353
46.368,-7.65857
46.376,-6.97423
46.384,-6.06623
46.392,-4.90535
46.400,-3.47070
46.408,-1.75268
46.416,0.24458
46.424,2.50148
46.432,4.98229
46.440,7.63548
46.448,10.39546
46.456,13.18549
46.464,15.92160
46.472,18.51736
46.480,20.88889
46.488,22.95979
46.496,24.66541
46.504,25.95614
46.512,26.79947
46.520,27.18077
46.528,27.10293
46.536,26.58521
46.544,25.66122
46.552,24.37634
46.560,22.78478
46.568,20.94624
46.576,18.92258
46.584,16.77461
46.592,14.55940
46.600,12.32833
46.608,10.12603
46.616,7.99006
46.624,5.95135
46.632,4.03492
46.640,2.26077
46.648,0.64472
46.656,-0.80103
46.664,-2.06770
46.672,-3.15002
46.680,-4.04647
46.688,-4.75973
46.696,-5.29697
46.704,-5.66998
46.712,-5.89511
46.720,-5.99268
46.728,-5.98631
46.736,-5.90179
46.744,-5.76600
46.752,-5.60559
46.760,-5.44576
46.768,-5.30911
46.776,-5.21460
46.784,-5.17679
46.792,-5.20518
46.800,-5.30396
46.808,-5.47198
46.816,-5.70316
46.824,-5.98720
46.832,-6.31066
46.840,-6.65831
46.848,-7.01453
46.856,-7.36470
46.864,-7.69638
46.872,-8.00013
46.880,-8.26988
46.888,-8.50290
46.896,-8.69951
46.904,-8.86236
46.912,-8.99572
46.920,-9.10463
46.928,-9.19413
46.936,-9.26862
46.944,-9.33139
46.952,-9.38443
46.960,-9.42851
46.968,-9.46337
46.976,-9.48820
46.984,-9.50202
46.992,-9.50414
47.000,-9.49461
47.008,-9.47451
47.016,-9.44601
47.024,-9.41229
47.032,-9.37717
47.040,-9.34441
47.048,-9.31681
47.056,-9.29500
47.064,-9.27611
47.072,-9.25249
47.080,-9.21062
47.088,-9.13060
47.096,-8.98623
47.104,-8.74591
47.112,-8.37435
47.120,-7.83487
47.128,-7.09223
47.136,-6.11558
47.144,-4.88126
47.152,-3.37536
47.160,-1.59573
47.168,0.44649
47.176,2.72614
47.184,5.20405
47.192,7.82783
47.200,10.53362
47.208,13.24864
47.216,15.89445
47.224,18.39083
47.232,20.65991
47.240,22.63031
47.248,24.24097
47.256,25.44442
47.264,26.20908
47.272,26.52058
47.280,26.38181
47.288,25.81199
47.296,24.84468
47.304,23.52519
47.312,21.90740
47.320,20.05033
47.328,18.01492
47.336,15.86100
47.344,13.64498
47.352,11.41827
47.360,9.22626
47.368,7.10812
47.376,5.09679
47.384,3.21937
47.392,1.49748
47.400,-0.05227
47.408,-1.41802
47.416,-2.59247
47.424,-3.57285
47.432,-4.36107
47.440,-4.96390
47.448,-5.39297
47.456,-5.66459
47.464,-5.79933
47.472,-5.82116
47.480,-5.75639
47.488,-5.63243
47.496,-5.47630
47.504,-5.31335
47.512,-5.16591
47.520,-5.05238
47.528,-4.98658
47.536,-4.97751
47.544,-5.02941
47.552,-5.14221
47.560,-5.31196
47.568,-5.53159
47.576,-5.79161
47.584,-6.08099
47.592,-6.38804
47.600,-6.70128
47.608,-7.01009
47.616,-7.30535
47.624,-7.57975
47.632,-7.82804
47.640,-8.04696
47.648,-8.23518
47.656,-8.39300
47.664,-8.52206
47.672,-8.62497
47.680,-8.70502
47.688,-8.76577
47.696,-8.81090
47.704,-8.84389
47.712,-8.86800
47.720,-8.88616
47.728,-8.90101
47.736,-8.91485
47.744,-8.92971
47.752,-8.94731
47.760,-8.96904
47.768,-8.99581
47.776,-9.02798
47.784,-9.06502
47.792,-9.10520
47.800,-9.14518
47.808,-9.17938
47.816,-9.19938
47.824,-9.19321
47.832,-9.14482
47.840,-9.03359
47.848,-8.83443
47.856,-8.51823
47.864,-8.05301
47.872,-7.40567
47.880,-6.54433
47.888,-5.44116
47.896,-4.07541
47.904,-2.43641
47.912,-0.52620
47.920,1.63870
47.928,4.02639
47.936,6.59002
47.944,9.26931
47.952,11.99317
47.960,14.68317
47.968,17.25755
47.976,19.63553
47.984,21.74158
47.992,23.50946
48.000,24.88563
48.008,25.83192
48.016,26.32712
48.024,26.36761
48.032,25.96683
48.040,25.15362
48.048,23.96973
48.056,22.46660
48.064,20.70185
48.072,18.73582
48.080,16.62852
48.088,14.43715
48.096,12.21432
48.104,10.00700
48.112,7.85604
48.120,5.79620
48.128,3.85636
48.136,2.06004
48.144,0.42585
48.152,-1.03214
48.160,-2.30418
48.168,-3.38487
48.176,-4.27328
48.184,-4.97324
48.192,-5.49343
48.200,-5.84735
48.208,-6.05299
48.216,-6.13221
48.224,-6.10972
48.232,-6.01194
48.240,-5.86566
48.248,-5.69674
48.256,-5.52900
48.264,-5.38319
48.272,-5.27634
48.280,-5.22121
48.288,-5.22605
48.296,-5.29447
48.304,-5.42564
48.312,-5.61472
48.320,-5.85340
48.328,-6.13075
48.336,-6.43402
48.344,-6.74953
48.352,-7.06364
48.360,-7.36367
48.368,-7.63883
48.376,-7.88104
48.384,-8.08553
48.392,-8.25114
48.400,-8.38009
48.408,-8.47744
48.416,-8.55008
48.424,-8.60559
48.432,-8.65118
48.440,-8.69279
48.448,-8.73463
48.456,-8.77897
48.464,-8.82634
48.472,-8.87587
48.480,-8.92581
48.488,-8.97398
48.496,-9.01818
48.504,-9.05660
48.512,-9.08794
48.520,-9.11155
48.528,-9.12737
48.536,-9.13559
48.544,-9.13627
48.552,-9.12871
48.560,-9.11069
48.568,-9.07751
48.576,-9.02107
48.584,-8.92878
48.592,-8.78277
48.600,-8.55955
48.608,-8.23020
48.616,-7.76157
48.624,-7.11822
48.632,-6.26519
48.640,-5.17140
48.648,-3.81321
48.656,-2.17776
48.664,-0.26584
48.672,1.90632
48.680,4.30628
48.688,6.88597
48.696,9.58340
48.704,12.32544
48.712,15.03147
48.720,17.61771
48.728,20.00182
48.736,22.10750
48.744,23.86867
48.752,25.23303
48.760,26.16450
48.768,26.64457
48.776,26.67222
48.784,26.26282
48.792,25.44585
48.800,24.26216
48.808,22.76082
48.816,20.99607
48.824,19.02467
48.832,16.90357
48.840,14.68828
48.848,12.43159
48.856,10.18271
48.864,7.98660
48.872,5.88343
48.880,3.90804
48.888,2.08940
48.896,0.45017
48.904,-0.99359
48.912,-2.23246
48.920,-3.26347
48.928,-4.08967
48.936,-4.71957
48.944,-5.16654
48.952,-5.44813
48.960,-5.58547
48.968,-5.60253
48.976,-5.52535
48.984,-5.38110
48.992,-5.19703
49.000,-4.99947
49.008,-4.81267
49.016,-4.65788
49.024,-4.55238
49.032,-4.50873
49.040,-4.53440
49.048,-4.63165
49.056,-4.79786
49.064,-5.02611
49.072,-5.30605
49.080,-5.62494
49.088,-5.96883
49.096,-6.32379
49.104,-6.67709
49.112,-7.01813
49.120,-7.33896
49.128,-7.63450
49.136,-7.90220
49.144,-8.14153
49.152,-8.35331
49.160,-8.53907
49.168,-8.70055
49.176,-8.83937
49.184,-8.95693
49.192,-9.05442
49.200,-9.13309
49.208,-9.19451
49.216,-9.24088
49.224,-9.27517
49.232,-9.30099
49.240,-9.32226
49.248,-9.34268
49.256,-9.36518
49.264,-9.39151
49.272,-9.42197
49.280,-9.45552
49.288,-9.49002
49.296,-9.52264
49.304,-9.55016
49.312,-9.56905
49.320,-9.57515
49.328,-9.56301
49.336,-9.52494
49.344,-9.44989
49.352,-9.32266
49.360,-9.12325
49.368,-8.82689
49.376,-8.40447
49.384,-7.82370
49.392,-7.05084
49.400,-6.05311
49.408,-4.80166
49.416,-3.27492
49.424,-1.46223
49.432,0.63284
49.440,2.98988
49.448,5.57026
49.456,8.31742
49.464,11.15905
49.472,14.01091
49.480,16.78198
49.488,19.38023
49.496,21.71852
49.504,23.71987
49.512,25.32181
49.520,26.47949
49.528,27.16732
49.536,27.37916
49.544,27.12713
49.552,26.43934
49.560,25.35683
49.568,23.93019
49.576,22.21632
49.584,20.27530
49.592,18.16782
49.600,15.95293
49.608,13.68623
49.616,11.41846
49.624,9.19450
49.632,7.05281
49.640,5.02529
49.648,3.13758
49.656,1.40947
49.664,-0.14443
49.672,-1.51410
49.680,-2.69364
49.688,-3.68094
49.696,-4.47768
49.704,-5.08952
49.712,-5.52631
49.720,-5.80228
49.728,-5.93595
49.736,-5.94970
49.744,-5.86902
49.752,-5.72145
49.760,-5.53522
49.768,-5.33792
49.776,-5.15502
49.784,-5.00864
49.792,-4.91658
49.800,-4.89153
49.808,-4.94077
49.816,-5.06602
49.824,-5.26366
49.832,-5.52519
49.840,-5.83804
49.848,-6.18671
49.856,-6.55416
49.864,-6.92338
49.872,-7.27881
49.880,-7.60746
49.888,-7.89975
49.896,-8.14982
49.904,-8.35554
49.912,-8.51824
49.920,-8.64209
49.928,-8.73342
49.936,-8.79978
49.944,-8.84895
49.952,-8.88801
49.960,-8.92243
49.968,-8.95556
49.976,-8.98839
49.984,-9.01981
49.992,-9.04720
50.000,-9.06728
50.008,-9.07717
50.016,-9.07518
50.024,-9.06146
50.032,-9.03816
50.040,-9.00921
50.048,-8.97972
50.056,-8.95508
50.064,-8.93994
50.072,-8.93702
50.080,-8.94584
50.088,-8.96153
50.096,-8.97364
50.104,-8.96531
50.112,-8.91298
50.120,-8.78683
50.128,-8.55200
50.136,-8.17073
50.144,-7.60508
50.152,-6.81995
50.160,-5.78622
50.168,-4.48347
50.176,-2.90217
50.184,-1.04523
50.192,1.07123
50.200,3.41776
50.208,5.95206
50.216,8.62017
50.224,11.35801
50.232,14.09354
50.240,16.74949
50.248,19.24651
50.256,21.50697
50.264,23.45894
50.272,25.04016
50.280,26.20165
50.288,26.91058
50.296,27.15200
50.304,26.92939
50.312,26.26379
50.320,25.19181
50.328,23.76255
50.336,22.03404
50.344,20.06952
50.352,17.93388
50.360,15.69052
50.368,13.39891
50.376,11.11268
50.384,8.87842
50.392,6.73499
50.400,4.71347
50.408,2.83754
50.416,1.12441
50.424,-0.41411
50.432,-1.77044
50.440,-2.94028
50.448,-3.92212
50.456,-4.71701
50.464,-5.32895
50.472,-5.76528
50.480,-6.03727
50.488,-6.16050
50.496,-6.15496
50.504,-6.04486
50.512,-5.85785
50.520,-5.62390
50.528,-5.37365
50.536,-5.13644
50.544,-4.93843
50.552,-4.80077
50.560,-4.73842
50.568,-4.75949
50.576,-4.86535
50.584,-5.05128
50.592,-5.30752
50.600,-5.62065
50.608,-5.97490
50.616,-6.35358
50.624,-6.74021
50.632,-7.11953
50.640,-7.47826
50.648,-7.80550
50.656,-8.09314
50.664,-8.33598
50.672,-8.53186
50.680,-8.68147
50.688,-8.78809
50.696,-8.85694
50.704,-8.89454
50.712,-8.90787
50.720,-8.90379
50.728,-8.88851
50.736,-8.86735
50.744,-8.84468
50.752,-8.82408
50.760,-8.80839
50.768,-8.79992
50.776,-8.80039
50.784,-8.81099
50.792,-8.83232
50.800,-8.86434
50.808,-8.90622
50.816,-8.95630
50.824,-9.01184
50.832,-9.06873
50.840,-9.12103
50.848,-9.16041
50.856,-9.17530
50.864,-9.15020
50.872,-9.06508
50.880,-8.89524
50.888,-8.61175
50.896,-8.18259
50.904,-7.57439
50.912,-6.75483
50.920,-5.69543
50.928,-4.37447
50.936,-2.77989
50.944,-0.91163
50.952,1.21657
50.960,3.57629
50.968,6.12458
50.976,8.80503
50.984,11.54994
50.992,14.28335
51.000,16.92467
51.008,19.39284
51.016,21.61055
51.024,23.50841
51.032,25.02860
51.040,26.12774
51.048,26.77886
51.056,26.97231
51.064,26.71546
51.072,26.03150
51.080,24.95721
51.088,23.54010
51.096,21.83514
51.104,19.90147
51.112,17.79938
51.120,15.58766
51.128,13.32162
51.136,11.05159
51.144,8.82210
51.152,6.67146
51.160,4.63171
51.168,2.72894
51.176,0.98372
51.184,-0.58822
51.192,-1.97547
51.200,-3.17045
51.208,-4.16922
51.216,-4.97153
51.224,-5.58121
51.232,-6.00658
51.240,-6.26091
51.248,-6.36264
51.256,-6.33524
51.264,-6.20654
51.272,-6.00763
51.280,-5.77117
51.288,-5.52937
51.296,-5.31189
51.304,-5.14386
51.312,-5.04434
51.320,-5.02536
51.328,-5.09161
51.336,-5.24079
51.344,-5.46447
51.352,-5.74942
51.360,-6.07917
51.368,-6.43566
51.376,-6.80087
51.384,-7.15825
51.392,-7.49388
51.400,-7.79719
51.408,-8.06137
51.416,-8.28328
51.424,-8.46307
51.432,-8.60353
51.440,-8.70933
51.448,-8.78622
51.456,-8.84034
51.464,-8.87765
51.472,-8.90350
51.480,-8.92238
51.488,-8.93773
51.496,-8.95202
51.504,-8.96677
51.512,-8.98282
51.520,-9.00059
51.528,-9.02035
51.536,-9.04247
51.544,-9.06757
51.552,-9.09646
51.560,-9.12994
51.568,-9.16838
51.576,-9.21112
51.584,-9.25579
51.592,-9.29756
51.600,-9.32851
51.608,-9.33709
51.616,-9.30778
51.624,-9.22093
51.632,-9.05290
51.640,-8.77657
51.648,-8.36214
51.656,-7.77855
51.664,-6.99520
51.672,-5.98417
51.680,-4.72271
51.688,-3.19580
51.696,-1.39874
51.704,0.66070
51.712,2.96070
51.720,5.46469
51.728,8.12160
51.736,10.86734
51.744,13.62736
51.752,16.32023
51.760,18.86194
51.768,21.17059
51.776,23.17100
51.784,24.79896
51.792,26.00474
51.800,26.75565
51.808,27.03737
51.816,26.85412
51.824,26.22760
51.832,25.19503
51.840,23.80623
51.848,22.12011
51.856,20.20085
51.864,18.11400
51.872,15.92293
51.880,13.68599
51.888,11.45440
51.896,9.27126
51.904,7.17140
51.912,5.18199
51.920,3.32371
51.928,1.61215
51.936,0.05914
51.944,-1.32614
51.952,-2.53651
51.960,-3.56680
51.968,-4.41424
51.976,-5.07943
51.984,-5.56733
51.992,-5.88818
52.000,-6.05795
52.008,-6.09822
52.016,-6.03534
52.024,-5.89905
52.032,-5.72059
52.040,-5.53070
52.048,-5.35761
52.056,-5.22529
52.064,-5.15193
52.072,-5.14902
52.080,-5.22101
52.088,-5.36557
52.096,-5.57459
52.104,-5.83566
52.112,-6.13387
52.120,-6.45376
52.128,-6.78102
52.136,-7.10369
52.144,-7.41283
52.152,-7.70248
52.160,-7.96924
52.168,-8.21147
52.176,-8.42845
52.184,-8.61981
52.192,-8.78511
52.200,-8.92383
52.208,-9.03562
52.216,-9.12067
52.224,-9.18001
52.232,-9.21575
52.240,-9.23101
52.248,-9.22976
52.256,-9.21647
52.264,-9.19561
52.272,-9.17137
52.280,-9.14729
52.288,-9.12614
52.296,-9.10994
52.304,-9.09991
52.312,-9.09655
52.320,-9.09960
52.328,-9.10779
52.336,-9.11858
52.344,-9.12755
52.352,-9.12778
52.360,-9.10906
52.368,-9.05718
52.376,-8.95345
52.384,-8.77460
52.392,-8.49322
52.400,-8.07872
52.408,-7.49895
52.416,-6.72230
52.424,-5.72017
52.432,-4.46968
52.440,-2.95631
52.448,-1.17629
52.456,0.86156
52.464,3.13456
52.472,5.60566
52.480,8.22388
52.488,10.92558
52.496,13.63692
52.504,16.27723
52.512,18.76324
52.520,21.01392
52.528,22.95531
52.536,24.52494
52.544,25.67537
52.552,26.37664
52.560,26.61732
52.568,26.40429
52.576,25.76127
52.584,24.72631
52.592,23.34858
52.600,21.68474
52.608,19.79535
52.616,17.74150
52.624,15.58206
52.632,13.37151
52.640,11.15862
52.648,8.98580
52.656,6.88907
52.664,4.89841
52.672,3.03838
52.680,1.32879
52.688,-0.21469
52.696,-1.58007
52.704,-2.75892
52.712,-3.74647
52.720,-4.54203
52.728,-5.14945
52.736,-5.57770
52.744,-5.84114
52.752,-5.95945
52.760,-5.95712
52.768,-5.86246
52.776,-5.70617
52.784,-5.51956
52.792,-5.33259
52.800,-5.17202
52.808,-5.05975
52.816,-5.01157
52.824,-5.03650
52.832,-5.13671
52.840,-5.30802
52.848,-5.54097
52.856,-5.82228
52.864,-6.13643
52.872,-6.46730
52.880,-6.79964
52.888,-7.12016
52.896,-7.41843
52.904,-7.68726
52.912,-7.92270
52.920,-8.12370
52.928,-8.29145
52.936,-8.42858
52.944,-8.53840
52.952,-8.62435
52.960,-8.68966
52.968,-8.73725
52.976,-8.76987
52.984,-8.79019
52.992,-8.80094
53.000,-8.80497
53.008,-8.80521
53.016,-8.80467
53.024,-8.80624
53.032,-8.81259
53.040,-8.82594
53.048,-8.84783
53.056,-8.87885
53.064,-8.91839
53.072,-8.96426
53.080,-9.01237
53.088,-9.05630
53.096,-9.08686
53.104,-9.09163
53.112,-9.05462
53.120,-8.95601
53.128,-8.77237
53.136,-8.47707
53.144,-8.04129
53.152,-7.43544
53.160,-6.63094
53.168,-5.60235
53.176,-4.32959
53.184,-2.80028
53.192,-1.01185
53.200,1.02654
53.208,3.29251
53.216,5.74966
53.224,8.34765
53.232,11.02339
53.240,13.70344
53.248,16.30753
53.256,18.75301
53.264,20.95973
53.272,22.85494
53.280,24.37761
53.288,25.48185
53.296,26.13914
53.304,26.33925
53.312,26.08982
53.320,25.41483
53.328,24.35213
53.336,22.95038
53.344,21.26565
53.352,19.35804
53.360,17.28844
53.368,15.11583
53.376,12.89508
53.384,10.67549
53.392,8.49999
53.400,6.40485
53.408,4.42001
53.416,2.56961
53.424,0.87270
53.432,-0.65601
53.440,-2.00559
53.448,-3.16846
53.456,-4.14030
53.464,-4.92028
53.472,-5.51159
53.480,-5.92208
53.488,-6.16484
53.496,-6.25845
53.504,-6.22670
53.512,-6.09772
53.520,-5.90256
53.528,-5.67331
53.536,-5.44099
53.544,-5.23363
53.552,-5.07455
53.560,-4.98119
53.568,-4.96452
53.576,-5.02891
53.584,-5.17253
53.592,-5.38812
53.600,-5.66407
53.608,-5.98570
53.616,-6.33675
53.624,-6.70072
53.632,-7.06221
53.640,-7.40790
53.648,-7.72725
53.656,-8.01283
53.664,-8.26030
53.672,-8.46819
53.680,-8.63746
53.688,-8.77094
53.696,-8.87278
53.704,-8.94783
53.712,-9.00111
53.720,-9.03738
53.728,-9.06079
53.736,-9.07475
53.744,-9.08179
53.752,-9.08369
53.760,-9.08149
53.768,-9.07568
53.776,-9.06641
53.784,-9.05368
53.792,-9.03764
53.800,-9.01870
53.808,-8.99771
53.816,-8.97587
53.824,-8.95449
53.832,-8.93451
53.840,-8.91585
53.848,-8.89646
53.856,-8.87131
53.864,-8.83140
53.872,-8.76288
53.880,-8.64650
53.888,-8.45764
53.896,-8.16686
53.904,-7.74116
53.912,-7.14586
53.920,-6.34699
53.928,-5.31417
53.936,-4.02358
53.944,-2.46093
53.952,-0.62403
53.960,1.47529
53.968,3.81015
53.976,6.33866
53.984,9.00509
53.992,11.74207
54.000,14.47365
54.008,17.11907
54.016,19.59692
54.024,21.82940
54.032,23.74637
54.040,25.28882
54.048,26.41161
54.056,27.08535
54.064,27.29728
54.072,27.05127
54.080,26.36679
54.088,25.27719
54.096,23.82730
54.104,22.07077
54.112,20.06716
54.120,17.87916
54.128,15.56998
54.136,13.20097
54.144,10.82971
54.152,8.50836
54.160,6.28251
54.168,4.19052
54.176,2.26326
54.184,0.52418
54.192,-1.01032
54.200,-2.33047
54.208,-3.43274
54.216,-4.31944
54.224,-4.99834
54.232,-5.48233
54.240,-5.78900
54.248,-5.94009
54.256,-5.96079
54.264,-5.87889
54.272,-5.72372
54.280,-5.52494
54.288,-5.31120
54.296,-5.10884
54.304,-4.94074
54.312,-4.82532
54.320,-4.77594
54.328,-4.80043
54.336,-4.90103
54.344,-5.07459
54.352,-5.31317
54.360,-5.60491
54.368,-5.93524
54.376,-6.28812
54.384,-6.64745
54.392,-6.99834
54.400,-7.32816
54.408,-7.62744
54.416,-7.89027
54.424,-8.11431
54.432,-8.30045
54.440,-8.45205
54.448,-8.57409
54.456,-8.67219
54.464,-8.75178
54.472,-8.81739
54.480,-8.87231
54.488,-8.91848
54.496,-8.95663
54.504,-8.98675
54.512,-9.00857
54.520,-9.02215
54.528,-9.02835
54.536,-9.02910
54.544,-9.02743
54.552,-9.02716
54.560,-9.03230
54.568,-9.04625
54.576,-9.07105
54.584,-9.10664
54.592,-9.15043
54.600,-9.19715
54.608,-9.23884
54.616,-9.26499
54.624,-9.26245
54.632,-9.21529
54.640,-9.10438
54.648,-8.90702
54.656,-8.59686
54.664,-8.14435
54.672,-7.51785
54.680,-6.68554
54.688,-5.61789
54.696,-4.29060
54.704,-2.68787
54.712,-0.80537
54.720,1.34702
54.728,3.74354
54.736,6.34193
54.744,9.08428
54.752,11.89926
54.760,14.70566
54.768,17.41681
54.776,19.94554
54.784,22.20917
54.792,24.13412
54.800,25.65983
54.808,26.74164
54.816,27.35273
54.824,27.48487
54.832,27.14815
54.840,26.36964
54.848,25.19105
54.856,23.66563
54.864,21.85464
54.872,19.82353
54.880,17.63824
54.888,15.36188
54.896,13.05201
54.904,10.75885
54.912,8.52450
54.920,6.38303
54.928,4.36143
54.936,2.48095
54.944,0.75856
54.952,-0.79181
54.960,-2.15857
54.968,-3.33241
54.976,-4.30683
54.984,-5.07911
54.992,-5.65147
55.000,-6.03209
55.008,-6.23577
55.016,-6.28401
55.024,-6.20442
55.032,-6.02932
55.040,-5.79389
55.048,-5.53373
55.056,-5.28235
55.064,-5.06888
55.072,-4.91610
55.080,-4.83933
55.088,-4.84611
55.096,-4.93667
55.104,-5.10516
55.112,-5.34118
55.120,-5.63150
55.128,-5.96163
55.136,-6.31691
55.144,-6.68337
55.152,-7.04810
55.160,-7.39944
55.168,-7.72705
55.176,-8.02208
55.184,-8.27738
55.192,-8.48790
55.200,-8.65108
55.208,-8.76721
55.216,-8.83948
55.224,-8.87381
55.232,-8.87832
55.240,-8.86254
55.248,-8.83646
55.256,-8.80948
55.264,-8.78941
55.272,-8.78165
55.280,-8.78874
55.288,-8.81029
55.296,-8.84337
55.304,-8.88329
55.312,-8.92459
55.320,-8.96216
55.328,-8.99213
55.336,-9.01245
55.344,-9.02294
55.352,-9.02481
55.360,-9.01955
55.368,-9.00743
55.376,-8.98577
55.384,-8.94729
55.392,-8.87895
55.400,-8.76129
55.408,-8.56862
55.416,-8.26991
55.424,-7.83036
55.432,-7.21361
55.440,-6.38430
55.448,-5.31103
55.456,-3.96938
55.464,-2.34504
55.472,-0.43659
55.480,1.74222
55.488,4.16123
55.496,6.77374
55.504,9.51782
55.512,12.31895
55.520,15.09381
55.528,17.75477
55.536,20.21493
55.544,22.39309
55.552,24.21849
55.560,25.63483
55.568,26.60319
55.576,27.10357
55.584,27.13507
55.592,26.71461
55.600,25.87461
55.608,24.65976
55.616,23.12336
55.624,21.32363
55.632,19.32033
55.640,17.17197
55.648,14.93379
55.656,12.65645
55.664,10.38547
55.672,8.16125
55.680,6.01937
55.688,3.99105
55.696,2.10349
55.704,0.37999
55.712,-1.16007
55.720,-2.50160
55.728,-3.63427
55.736,-4.55307
55.744,-5.25901
55.752,-5.75967
55.760,-6.06950
55.768,-6.20974
55.776,-6.20764
55.784,-6.09508
55.792,-5.90664
55.800,-5.67731
55.808,-5.44011
55.816,-5.22402
55.824,-5.05237
55.832,-4.94187
55.840,-4.90236
55.848,-4.93727
55.856,-5.04443
55.864,-5.21731
55.872,-5.44626
55.880,-5.71971
55.888,-6.02528
55.896,-6.35070
55.904,-6.68448
55.912,-7.01644
55.920,-7.33794
55.928,-7.64191
55.936,-7.92263
55.944,-8.17552
55.952,-8.39692
55.960,-8.58402
55.968,-8.73502
55.976,-8.84943
55.984,-8.92846
55.992,-8.97529
56.000,-8.99506
56.008,-8.99455
56.016,-8.98159
56.024,-8.96424
56.032,-8.94997
56.040,-8.94498
56.048,-8.95369
56.056,-8.97846
56.064,-9.01947
56.072,-9.07486
56.080,-9.14101
56.088,-9.21299
56.096,-9.28516
56.104,-9.35159
56.112,-9.40640
56.120,-9.44370
56.128,-9.45705
56.136,-9.43868
56.144,-9.37833
56.152,-9.26217
56.160,-9.07192
56.168,-8.78455
56.176,-8.37263
56.184,-7.80559
56.192,-7.05168
56.200,-6.08063
56.208,-4.86665
56.216,-3.39149
56.224,-1.64724
56.232,0.36144
56.240,2.61574
56.248,5.08202
56.256,7.71213
56.264,10.44468
56.272,13.20743
56.280,15.92062
56.288,18.50103
56.296,20.86651
56.304,22.94052
56.312,24.65642
56.320,25.96107
56.328,26.81757
56.336,27.20691
56.344,27.12845
56.352,26.59926
56.360,25.65226
56.368,24.33361
56.376,22.69923
56.384,20.81112
56.392,18.73362
56.400,16.53005
56.408,14.25991
56.416,11.97692
56.424,9.72774
56.432,7.55160
56.440,5.48050
56.448,3.53999
56.456,1.75013
56.464,0.12643
56.472,-1.31941
56.480,-2.57907
56.488,-3.64761
56.496,-4.52375
56.504,-5.21033
56.512,-5.71488
56.520,-6.04997
56.528,-6.23325
56.536,-6.28690
56.544,-6.23675
56.552,-6.11088
56.560,-5.93809
56.568,-5.74622
56.576,-5.56081
56.584,-5.40395
56.592,-5.29341
56.600,-5.24219
56.608,-5.25816
56.616,-5.34411
56.624,-5.49794
56.632,-5.71324
56.640,-5.98002
56.648,-6.28574
56.656,-6.61640
56.664,-6.95778
56.672,-7.29648
56.680,-7.62085
56.688,-7.92162
56.696,-8.19216
56.704,-8.42858
56.712,-8.62944
56.720,-8.79541
56.728,-8.92873
56.736,-9.03258
56.744,-9.11062
56.752,-9.16651
56.760,-9.20372
56.768,-9.22543
56.776,-9.23463
56.784,-9.23422
56.792,-9.22710
56.800,-9.21627
56.808,-9.20475
56.816,-9.19559
56.824,-9.19172
56.832,-9.19578
56.840,-9.20993
56.848,-9.23557
56.856,-9.27286
56.864,-9.32020
56.872,-9.37346
56.880,-9.42518
56.888,-9.46381
56.896,-9.47310
56.904,-9.43197
56.912,-9.31462
56.920,-9.09140
56.928,-8.73005
56.936,-8.19749
56.944,-7.46194
56.952,-6.49521
56.960,-5.27505
56.968,-3.78735
56.976,-2.02814
56.984,-0.00524
56.992,2.26067
57.000,4.73554
57.008,7.37230
57.016,10.11199
57.024,12.88572
57.032,15.61743
57.040,18.22720
57.048,20.63519
57.056,22.76571
57.064,24.55145
57.072,25.93718
57.080,26.88280
57.088,27.36537
57.096,27.37996
57.104,26.93940
57.112,26.07289
57.120,24.82377
57.128,23.24649
57.136,21.40316
57.144,19.35974
57.152,17.18226
57.160,14.93338
57.168,12.66951
57.176,10.43893
57.184,8.28091
57.192,6.22592
57.200,4.29649
57.208,2.50874
57.216,0.87394
57.224,-0.59994
57.232,-1.90723
57.240,-3.04394
57.248,-4.00772
57.256,-4.79823
57.264,-5.41782
57.272,-5.87221
57.280,-6.17123
57.288,-6.32920
57.296,-6.36507
57.304,-6.30202
57.312,-6.16661
57.320,-5.98740
57.328,-5.79328
57.336,-5.61153
57.344,-5.46598
57.352,-5.37545
57.360,-5.35274
57.368,-5.40419
57.376,-5.52993
57.384,-5.72462
57.392,-5.97860
57.400,-6.27921
57.408,-6.61200
57.416,-6.96193
57.424,-7.31429
57.432,-7.65554
57.440,-7.97393
57.448,-8.25998
57.456,-8.50691
57.464,-8.71084
57.472,-8.87088
57.480,-8.98889
57.488,-9.06906
57.496,-9.11729
57.504,-9.14037
57.512,-9.14521
57.520,-9.13815
57.528,-9.12436
57.536,-9.10767
57.544,-9.09047
57.552,-9.07400
57.560,-9.05876
57.568,-9.04498
57.576,-9.03303
57.584,-9.02372
57.592,-9.01822
57.600,-9.01773
57.608,-9.02283
57.616,-9.03261
57.624,-9.04369
57.632,-9.04930
57.640,-9.03836
57.648,-8.99494
57.656,-8.89799
57.664,-8.72156
57.672,-8.43562
57.680,-8.00733
57.688,-7.40292
57.696,-6.58997
57.704,-5.54014
57.712,-4.23191
57.720,-2.65333
57.728,-0.80440
57.736,1.30118
57.744,3.63497
57.752,6.15384
57.760,8.80098
57.768,11.50808
57.776,14.19846
57.784,16.79092
57.792,19.20419
57.800,21.36132
57.808,23.19390
57.816,24.64555
57.824,25.67468
57.832,26.25629
57.840,26.38266
57.848,26.06312
57.856,25.32267
57.864,24.19986
57.872,22.74382
57.880,21.01108
57.888,19.06212
57.896,16.95827
57.904,14.75903
57.912,12.52004
57.920,10.29158
57.928,8.11774
57.936,6.03596
57.944,4.07707
57.952,2.26541
57.960,0.61926
57.968,-0.84869
57.976,-2.13077
57.984,-3.22385
57.992,-4.12878
58.000,-4.85005
58.008,-5.39551
58.016,-5.77630
58.024,-6.00687
58.032,-6.10503
58.040,-6.09182
58.048,-5.99124
58.056,-5.82946
58.064,-5.63381
58.072,-5.43145
58.080,-5.24791
58.088,-5.10565
58.096,-5.02277
58.104,-5.01206
58.112,-5.08044
58.120,-5.22888
58.128,-5.45269
58.136,-5.74211
58.144,-6.08327
58.152,-6.45933
58.160,-6.85173
58.168,-7.24165
58.176,-7.61142
58.184,-7.94590
58.192,-8.23363
58.200,-8.46769
58.208,-8.64595
58.216,-8.77085
58.224,-8.84862
58.232,-8.88794
58.240,-8.89865
58.248,-8.89031
58.256,-8.87126
58.264,-8.84803
58.272,-8.82523
58.280,-8.80577
58.288,-8.79124
58.296,-8.78232
58.304,-8.77920
58.312,-8.78178
58.320,-8.78989
58.328,-8.80339
58.336,-8.82210
58.344,-8.84567
58.352,-8.87317
58.360,-8.90256
58.368,-8.92989
58.376,-8.94863
58.384,-8.94900
58.392,-8.91755
58.400,-8.83702
58.408,-8.68639
58.416,-8.44120
58.424,-8.07415
58.432,-7.55608
58.440,-6.85733
58.448,-5.94964
58.456,-4.80845
58.464,-3.41545
58.472,-1.76129
58.480,0.15202
58.488,2.30918
58.496,4.68052
58.504,7.22182
58.512,9.87534
58.520,12.57193
58.528,15.23415
58.536,17.78019
58.544,20.12822
58.552,22.20093
58.560,23.92995
58.568,25.25971
58.576,26.15070
58.584,26.58150
58.592,26.54969
58.600,26.07131
58.608,25.17903
58.616,23.91912
58.624,22.34775
58.632,20.52679
58.640,18.51971
58.648,16.38800
58.656,14.18828
58.664,11.97057
58.672,9.77747
58.680,7.64446
58.688,5.60072
58.696,3.67043
58.704,1.87400
58.712,0.22912
58.720,-1.24868
58.728,-2.54608
58.736,-3.65252
58.744,-4.56120
58.752,-5.27020
58.760,-5.78347
58.768,-6.11147
58.776,-6.27114
58.784,-6.28542
58.792,-6.18211
58.800,-5.99246
58.808,-5.74940
58.816,-5.48583
58.824,-5.23270
58.832,-5.01734
58.840,-4.86195
58.848,-4.78247
58.856,-4.78788
58.864,-4.88020
58.872,-5.05499
58.880,-5.30240
58.888,-5.60856
58.896,-5.95714
58.904,-6.33083
58.912,-6.71258
58.920,-7.08672
58.928,-7.43964
58.936,-7.76043
58.944,-8.04127
58.952,-8.27768
58.960,-8.46852
58.968,-8.61576
58.976,-8.72396
58.984,-8.79947
58.992,-8.84956
59.000,-8.88140
59.008,-8.90114
59.016,-8.91328
59.024,-8.92036
59.032,-8.92309
59.040,-8.92094
59.048,-8.91283
59.056,-8.89802
59.064,-8.87678
59.072,-8.85080
59.080,-8.82320
59.088,-8.79828
59.096,-8.78095
59.104,-8.77592
59.112,-8.78675
59.120,-8.81483
59.128,-8.85827
59.136,-8.91089
59.144,-8.96142
59.152,-8.99304
59.160,-8.98337
59.168,-8.90496
59.176,-8.72620
59.184,-8.41279
59.192,-7.92946
59.200,-7.24220
59.208,-6.32059
59.216,-5.14034
59.224,-3.68576
59.232,-1.95203
59.240,0.05297
59.248,2.30750
59.256,4.77552
59.264,7.40714
59.272,10.14014
59.280,12.90227
59.288,15.61468
59.296,18.19586
59.304,20.56596
59.312,22.65111
59.320,24.38731
59.328,25.72373
59.336,26.62506
59.344,27.07282
59.352,27.06553
59.360,26.61782
59.368,25.75862
59.376,24.52871
59.384,22.97786
59.392,21.16178
59.400,19.13925
59.408,16.96948
59.416,14.70997
59.424,12.41482
59.432,10.13356
59.440,7.91032
59.448,5.78333
59.456,3.78464
59.464,1.94001
59.472,0.26909
59.480,-1.21423
59.488,-2.50129
59.496,-3.58808
59.504,-4.47487
59.512,-5.16592
59.520,-5.66961
59.528,-5.99863
59.536,-6.17018
59.544,-6.20592
59.552,-6.13148
59.560,-5.97538
59.568,-5.76765
59.576,-5.53809
59.584,-5.31457
59.592,-5.12149
59.600,-4.97856
59.608,-4.90000
59.616,-4.89426
59.624,-4.96409
59.632,-5.10702
59.640,-5.31618
59.648,-5.58118
59.656,-5.88915
59.664,-6.22576
59.672,-6.57616
59.680,-6.92593
59.688,-7.26204
59.696,-7.57362
59.704,-7.85256
59.712,-8.09392
59.720,-8.29586
59.728,-8.45948
59.736,-8.58824
59.744,-8.68721
59.752,-8.76223
59.760,-8.81906
59.768,-8.86267
59.776,-8.89683
59.784,-8.92398
59.792,-8.94542
59.800,-8.96167
59.808,-8.97293
59.816,-8.97952
59.824,-8.98209
59.832,-8.98173
59.840,-8.97992
59.848,-8.97833
59.856,-8.97854
59.864,-8.98174
59.872,-8.98840
59.880,-8.99779
59.888,-9.00757
59.896,-9.01317
59.904,-9.00711
59.912,-8.97838
59.920,-8.91173
59.928,-8.78735
59.936,-8.58077
59.944,-8.26347
59.952,-7.80395
59.960,-7.16944
59.968,-6.32817
59.976,-5.25198
59.984,-3.91923
59.992,-2.31757
