time_s,ppg
0.000,5.32925
0.008,4.41894
0.016,3.54146
0.024,2.69370
0.032,1.87471
0.040,1.08516
0.048,0.32688
0.056,-0.39743
0.064,-1.08428
0.072,-1.72936
0.080,-2.32747
0.088,-2.87258
0.096,-3.35822
0.104,-3.77803
0.112,-4.12663
0.120,-4.40053
0.128,-4.59895
0.136,-4.72436
0.144,-4.78264
0.152,-4.78292
0.160,-4.73688
0.168,-4.65786
0.176,-4.55982
0.184,-4.45622
0.192,-4.35911
0.200,-4.27843
0.208,-4.22163
0.216,-4.19352
0.224,-4.19642
0.232,-4.23051
0.240,-4.29426
0.248,-4.38488
0.256,-4.49883
0.264,-4.63213
0.272,-4.78064
0.280,-4.94021
0.288,-5.10673
0.296,-5.27627
0.304,-5.44509
0.312,-5.60978
0.320,-5.76736
0.328,-5.91543
0.336,-6.05223
0.344,-6.17675
0.352,-6.28881
0.360,-6.38900
0.368,-6.47861
0.376,-6.55939
0.384,-6.63325
0.392,-6.70192
0.400,-6.76659
0.408,-6.82775
0.416,-6.88504
0.424,-6.93740
0.432,-6.98327
0.440,-7.02097
0.448,-7.04909
0.456,-7.06684
0.464,-7.07422
0.472,-7.07212
0.480,-7.06215
0.488,-7.04642
0.496,-7.02725
0.504,-7.00675
0.512,-6.98659
0.520,-6.96770
0.528,-6.95016
0.536,-6.93319
0.544,-6.91524
0.552,-6.89428
0.560,-6.86809
0.568,-6.83466
0.576,-6.79257
0.584,-6.74130
0.592,-6.68147
0.600,-6.61481
0.608,-6.54402
0.616,-6.47240
0.624,-6.40329
0.632,-6.33953
0.640,-6.28297
0.648,-6.23414
0.656,-6.19216
0.664,-6.15484
0.672,-6.11903
0.680,-6.08105
0.688,-6.03718
0.696,-5.98415
0.704,-5.91951
0.712,-5.84183
0.720,-5.75082
0.728,-5.64720
0.736,-5.53258
0.744,-5.40914
0.752,-5.27946
0.760,-5.14624
0.768,-5.01218
0.776,-4.87988
0.784,-4.75181
0.792,-4.63022
0.800,-4.51713
0.808,-4.41413
0.816,-4.32211
0.824,-4.24074
0.832,-4.16797
0.840,-4.09928
0.848,-4.02700
0.856,-3.93965
0.864,-3.82147
0.872,-3.65219
0.880,-3.40716
0.888,-3.05804
0.896,-2.57401
0.904,-1.92360
0.912,-1.07703
0.920,-0.00894
0.928,1.29872
0.936,2.85394
0.944,4.65232
0.952,6.67558
0.960,8.89116
0.968,11.25285
0.976,13.70258
0.984,16.17315
0.992,18.59170
1.000,20.88363
1.008,22.97683
1.016,24.80575
1.024,26.31512
1.032,27.46295
1.040,28.22261
1.048,28.58381
1.056,28.55241
1.064,28.14936
1.072,27.40870
1.080,26.37500
1.088,25.10037
1.096,23.64124
1.104,22.05505
1.112,20.39704
1.120,18.71739
1.128,17.05894
1.136,15.45544
1.144,13.93071
1.152,12.49858
1.160,11.16366
1.168,9.92278
1.176,8.76694
1.184,7.68358
1.192,6.65874
1.200,5.67906
1.208,4.73320
1.216,3.81281
1.224,2.91290
1.232,2.03171
1.240,1.17037
1.248,0.33235
1.256,-0.47711
1.264,-1.25149
1.272,-1.98336
1.280,-2.66480
1.288,-3.28775
1.296,-3.84456
1.304,-4.32857
1.312,-4.73478
1.320,-5.06056
1.328,-5.30609
1.336,-5.47469
1.344,-5.57276
1.352,-5.60952
1.360,-5.59640
1.368,-5.54624
1.376,-5.47243
1.384,-5.38799
1.392,-5.30476
1.400,-5.23273
1.408,-5.17956
1.416,-5.15038
1.424,-5.14773
1.432,-5.17177
1.440,-5.22056
1.448,-5.29055
1.456,-5.37714
1.464,-5.47527
1.472,-5.58006
1.480,-5.68741
1.488,-5.79438
1.496,-5.89949
1.504,-6.00264
1.512,-6.10485
1.520,-6.20776
1.528,-6.31310
1.536,-6.42211
1.544,-6.53520
1.552,-6.65172
1.560,-6.76996
1.568,-6.88735
1.576,-7.00076
1.584,-7.10687
1.592,-7.20263
1.600,-7.28561
1.608,-7.35434
1.616,-7.40854
1.624,-7.44912
1.632,-7.47814
1.640,-7.49854
1.648,-7.51385
1.656,-7.52777
1.664,-7.54379
1.672,-7.56474
1.680,-7.59253
1.688,-7.62783
1.696,-7.67002
1.704,-7.71715
1.712,-7.76618
1.720,-7.81327
1.728,-7.85427
1.736,-7.88525
1.744,-7.90301
1.752,-7.90551
1.760,-7.89202
1.768,-7.86307
1.776,-7.82030
1.784,-7.76601
1.792,-7.70283
1.800,-7.63337
1.808,-7.55997
1.816,-7.48468
1.824,-7.40915
1.832,-7.33478
1.840,-7.26275
1.848,-7.19405
1.856,-7.12948
1.864,-7.06956
1.872,-7.01445
1.880,-6.96384
1.888,-6.91685
1.896,-6.87205
1.904,-6.82751
1.912,-6.78096
1.920,-6.73001
1.928,-6.67237
1.936,-6.60609
1.944,-6.52980
1.952,-6.44292
1.960,-6.34576
1.968,-6.23950
1.976,-6.12605
1.984,-6.00772
1.992,-5.88675
2.000,-5.76490
2.008,-5.64303
2.016,-5.52106
2.024,-5.39798
2.032,-5.27217
2.040,-5.14172
2.048,-5.00462
2.056,-4.85886
2.064,-4.70214
2.072,-4.53131
2.080,-4.34157
2.088,-4.12553
2.096,-3.87241
2.104,-3.56738
2.112,-3.19136
2.120,-2.72139
2.128,-2.13161
2.136,-1.39491
2.144,-0.48510
2.152,0.62055
2.160,1.93872
2.168,3.47752
2.176,5.23443
2.184,7.19469
2.192,9.33055
2.200,11.60132
2.208,13.95442
2.216,16.32736
2.224,18.65048
2.232,20.85060
2.240,22.85512
2.248,24.59653
2.256,26.01665
2.264,27.07054
2.272,27.72931
2.280,27.98201
2.288,27.83594
2.296,27.31584
2.304,26.46169
2.312,25.32558
2.320,23.96776
2.328,22.45230
2.336,20.84263
2.344,19.19748
2.352,17.56745
2.360,15.99266
2.368,14.50152
2.376,13.11060
2.384,11.82566
2.392,10.64334
2.400,9.55348
2.408,8.54160
2.416,7.59132
2.424,6.68662
2.432,5.81365
2.440,4.96196
2.448,4.12520
2.456,3.30121
2.464,2.49162
2.472,1.70118
2.480,0.93692
2.488,0.20725
2.496,-0.47882
2.504,-1.11245
2.512,-1.68555
2.520,-2.19129
2.528,-2.62451
2.536,-2.98198
2.544,-3.26261
2.552,-3.46741
2.560,-3.59951
2.568,-3.66396
2.576,-3.66761
2.584,-3.61891
2.592,-3.52767
2.600,-3.40481
2.608,-3.26190
2.616,-3.11066
2.624,-2.96233
2.632,-2.82698
2.640,-2.71289
2.648,-2.62602
2.656,-2.56971
2.664,-2.54459
2.672,-2.54874
2.680,-2.57809
2.688,-2.62707
2.696,-2.68922
2.704,-2.75800
2.712,-2.82733
2.720,-2.89208
2.728,-2.94814
2.736,-2.99242
2.744,-3.02255
2.752,-3.03646
2.760,-3.03208
2.768,-3.00710
2.776,-2.95900
2.784,-2.88541
2.792,-2.78461
2.800,-2.65631
2.808,-2.50231
2.816,-2.32702
2.824,-2.13762
2.832,-1.94382
2.840,-1.75728
2.848,-1.59076
2.856,-1.45696
2.864,-1.36745
2.872,-1.33149
2.880,-1.35509
2.888,-1.44031
2.896,-1.58510
2.904,-1.78348
2.912,-2.02618
2.920,-2.30160
2.928,-2.59676
2.936,-2.89826
2.944,-3.19300
2.952,-3.46877
2.960,-3.71459
2.968,-3.92101
2.976,-4.08033
2.984,-4.18684
2.992,-4.23704
3.000,-4.22988
3.008,-4.16701
3.016,-4.05278
3.024,-3.89417
3.032,-3.70039
3.040,-3.48229
3.048,-3.25160
3.056,-3.02002
3.064,-2.79842
3.072,-2.59607
3.080,-2.42022
3.088,-2.27579
3.096,-2.16547
3.104,-2.08996
3.112,-2.04832
3.120,-2.03842
3.128,-2.05736
3.136,-2.10183
3.144,-2.16842
3.152,-2.25383
3.160,-2.35505
3.168,-2.46935
3.176,-2.59430
3.184,-2.72777
3.192,-2.86789
3.200,-3.01302
3.208,-3.16172
3.216,-3.31270
3.224,-3.46476
3.232,-3.61678
3.240,-3.76771
3.248,-3.91669
3.256,-4.06303
3.264,-4.20630
3.272,-4.34621
3.280,-4.48250
3.288,-4.61455
3.296,-4.74115
3.304,-4.86020
3.312,-4.96861
3.320,-5.06248
3.328,-5.13739
3.336,-5.18892
3.344,-5.21315
3.352,-5.20716
3.360,-5.16945
3.368,-5.10011
3.376,-5.00096
3.384,-4.87551
3.392,-4.72881
3.400,-4.56733
3.408,-4.39865
3.416,-4.23111
3.424,-4.07341
3.432,-3.93396
3.440,-3.82028
3.448,-3.73831
3.456,-3.69187
3.464,-3.68230
3.472,-3.70843
3.480,-3.76685
3.488,-3.85252
3.496,-3.95950
3.504,-4.08179
3.512,-4.21403
3.520,-4.35190
3.528,-4.49227
3.536,-4.63297
3.544,-4.77215
3.552,-4.90751
3.560,-5.03526
3.568,-5.14921
3.576,-5.23987
3.584,-5.29394
3.592,-5.29406
3.600,-5.21898
3.608,-5.04427
3.616,-4.74342
3.624,-4.28958
3.632,-3.65763
3.640,-2.82662
3.648,-1.78234
3.656,-0.51967
3.664,0.95535
3.672,2.62411
3.680,4.45480
3.688,6.40287
3.696,8.41249
3.704,10.41920
3.712,12.35348
3.720,14.14499
3.728,15.72699
3.736,17.04070
3.744,18.03885
3.752,18.68850
3.760,18.97257
3.768,18.89039
3.776,18.45708
3.784,17.70194
3.792,16.66598
3.800,15.39886
3.808,13.95544
3.816,12.39236
3.824,10.76468
3.832,9.12298
3.840,7.51103
3.848,5.96405
3.856,4.50782
3.864,3.15863
3.872,1.92410
3.880,0.80466
3.888,-0.20438
3.896,-1.11057
3.904,-1.92215
3.912,-2.64625
3.920,-3.28778
3.928,-3.84898
3.936,-4.32963
3.944,-4.72779
3.952,-5.04084
3.960,-5.26671
3.968,-5.40496
3.976,-5.45771
3.984,-5.43019
3.992,-5.33094
4.000,-5.17147
4.008,-4.96563
4.016,-4.72866
4.024,-4.47603
4.032,-4.22242
4.040,-3.98071
4.048,-3.76136
4.056,-3.57199
4.064,-3.41739
4.072,-3.29966
4.080,-3.21861
4.088,-3.17215
4.096,-3.15663
4.104,-3.16685
4.112,-3.19597
4.120,-3.23499
4.128,-3.27219
4.136,-3.29260
4.144,-3.27763
4.152,-3.20515
4.160,-3.05002
4.168,-2.78523
4.176,-2.38362
4.184,-1.82000
4.192,-1.07366
4.200,-0.13083
4.208,1.01294
4.216,2.35096
4.224,3.86429
4.232,5.52148
4.240,7.27945
4.248,9.08542
4.256,10.87977
4.264,12.59966
4.272,14.18296
4.280,15.57217
4.288,16.71784
4.296,17.58137
4.304,18.13677
4.312,18.37152
4.320,18.28645
4.328,17.89479
4.336,17.22054
4.344,16.29634
4.352,15.16109
4.360,13.85746
4.368,12.42944
4.376,10.92019
4.384,9.37024
4.392,7.81607
4.400,6.28923
4.408,4.81589
4.416,3.41672
4.424,2.10719
4.432,0.89797
4.440,-0.20433
4.448,-1.19637
4.456,-2.07721
4.464,-2.84740
4.472,-3.50827
4.480,-4.06140
4.488,-4.50851
4.496,-4.85158
4.504,-5.09326
4.512,-5.23729
4.520,-5.28882
4.528,-5.25455
4.536,-5.14253
4.544,-4.96195
4.552,-4.72274
4.560,-4.43519
4.568,-4.10969
4.576,-3.75650
4.584,-3.38575
4.592,-3.00740
4.600,-2.63136
4.608,-2.26761
4.616,-1.92615
4.624,-1.61683
4.632,-1.34902
4.640,-1.13097
4.648,-0.96912
4.656,-0.86736
4.664,-0.82648
4.672,-0.84385
4.680,-0.91353
4.688,-1.02684
4.696,-1.17317
4.704,-1.34112
4.712,-1.51973
4.720,-1.69950
4.728,-1.87334
4.736,-2.03711
4.744,-2.18979
4.752,-2.33319
4.760,-2.47130
4.768,-2.60934
4.776,-2.75261
4.784,-2.90548
4.792,-3.07045
4.800,-3.24763
4.808,-3.43461
4.816,-3.62669
4.824,-3.81750
4.832,-3.99978
4.840,-4.16632
4.848,-4.31074
4.856,-4.42825
4.864,-4.51594
4.872,-4.57297
4.880,-4.60039
4.888,-4.60077
4.896,-4.57771
4.904,-4.53530
4.912,-4.47757
4.920,-4.40810
4.928,-4.32983
4.936,-4.24497
4.944,-4.15527
4.952,-4.06224
4.960,-3.96757
4.968,-3.87337
4.976,-3.78233
4.984,-3.69771
4.992,-3.62309
5.000,-3.56201
5.008,-3.51750
5.016,-3.49171
5.024,-3.48567
5.032,-3.49918
5.040,-3.53096
5.048,-3.57887
5.056,-3.64019
5.064,-3.71189
5.072,-3.79094
5.080,-3.87450
5.088,-3.96015
5.096,-4.04604
5.104,-4.13092
5.112,-4.21418
5.120,-4.29578
5.128,-4.37607
5.136,-4.45564
5.144,-4.53518
5.152,-4.61539
5.160,-4.69700
5.168,-4.78083
5.176,-4.86782
5.184,-4.95906
5.192,-5.05576
5.200,-5.15906
5.208,-5.26983
5.216,-5.38842
5.224,-5.51447
5.232,-5.64673
5.240,-5.78305
5.248,-5.92048
5.256,-6.05550
5.264,-6.18430
5.272,-6.30315
5.280,-6.40872
5.288,-6.49833
5.296,-6.57017
5.304,-6.62346
5.312,-6.65858
5.320,-6.67704
5.328,-6.68152
5.336,-6.67557
5.344,-6.66341
5.352,-6.64945
5.360,-6.63787
5.368,-6.63208
5.376,-6.63442
5.384,-6.64583
5.392,-6.66587
5.400,-6.69284
5.408,-6.72403
5.416,-6.75604
5.424,-6.78509
5.432,-6.80720
5.440,-6.81845
5.448,-6.81510
5.456,-6.79386
5.464,-6.75206
5.472,-6.68798
5.480,-6.60112
5.488,-6.49248
5.496,-6.36461
5.504,-6.22156
5.512,-6.06847
5.520,-5.91084
5.528,-5.75359
5.536,-5.59982
5.544,-5.44955
5.552,-5.29829
5.560,-5.13590
5.568,-4.94557
5.576,-4.70338
5.584,-4.37838
5.592,-3.93353
5.600,-3.32736
5.608,-2.51645
5.616,-1.45864
5.624,-0.11664
5.632,1.53804
5.640,3.52139
5.648,5.83357
5.656,8.45661
5.664,11.35331
5.672,14.46755
5.680,17.72614
5.688,21.04202
5.696,24.31870
5.704,27.45547
5.712,30.35301
5.720,32.91895
5.728,35.07292
5.736,36.75087
5.744,37.90824
5.752,38.52199
5.760,38.59122
5.768,38.13659
5.776,37.19844
5.784,35.83382
5.792,34.11257
5.800,32.11267
5.808,29.91535
5.816,27.60020
5.824,25.24075
5.832,22.90079
5.840,20.63175
5.848,18.47126
5.856,16.44297
5.864,14.55752
5.872,12.81452
5.880,11.20526
5.888,9.71577
5.896,8.32981
5.904,7.03163
5.912,5.80800
5.920,4.64957
5.928,3.55142
5.936,2.51292
5.944,1.53705
5.952,0.62931
5.960,-0.20345
5.968,-0.95430
5.976,-1.61722
5.984,-2.18795
5.992,-2.66453
6.000,-3.04757
6.008,-3.34035
6.016,-3.54874
6.024,-3.68106
6.032,-3.74773
6.040,-3.76091
6.048,-3.73393
6.056,-3.68069
6.064,-3.61484
6.072,-3.54915
6.080,-3.49488
6.088,-3.46137
6.096,-3.45581
6.104,-3.48323
6.112,-3.54654
6.120,-3.64670
6.128,-3.78288
6.136,-3.95255
6.144,-4.15167
6.152,-4.37486
6.160,-4.61557
6.168,-4.86639
6.176,-5.11949
6.184,-5.36714
6.192,-5.60239
6.200,-5.81975
6.208,-6.01572
6.216,-6.18910
6.224,-6.34095
6.232,-6.47433
6.240,-6.59378
6.248,-6.70459
6.256,-6.81214
6.264,-6.92117
6.272,-7.03518
6.280,-7.15606
6.288,-7.28391
6.296,-7.41713
6.304,-7.55282
6.312,-7.68723
6.320,-7.81641
6.328,-7.93679
6.336,-8.04559
6.344,-8.14108
6.352,-8.22254
6.360,-8.29003
6.368,-8.34407
6.376,-8.38530
6.384,-8.41435
6.392,-8.43176
6.400,-8.43815
6.408,-8.43437
6.416,-8.42186
6.424,-8.40274
6.432,-8.37984
6.440,-8.35652
6.448,-8.33625
6.456,-8.32211
6.464,-8.31625
6.472,-8.31932
6.480,-8.33022
6.488,-8.34599
6.496,-8.36209
6.504,-8.37298
6.512,-8.37292
6.520,-8.35692
6.528,-8.32156
6.536,-8.26560
6.544,-8.19023
6.552,-8.09890
6.560,-7.99676
6.568,-7.88990
6.576,-7.78437
6.584,-7.68539
6.592,-7.59671
6.600,-7.52027
6.608,-7.45630
6.616,-7.40360
6.624,-7.36013
6.632,-7.32351
6.640,-7.29153
6.648,-7.26244
6.656,-7.23498
6.664,-7.20819
6.672,-7.18118
6.680,-7.15284
6.688,-7.12166
6.696,-7.08577
6.704,-7.04312
6.712,-6.99178
6.720,-6.93030
6.728,-6.85798
6.736,-6.77508
6.744,-6.68285
6.752,-6.58346
6.760,-6.47974
6.768,-6.37486
6.776,-6.27195
6.784,-6.17377
6.792,-6.08241
6.800,-5.99918
6.808,-5.92458
6.816,-5.85840
6.824,-5.79982
6.832,-5.74749
6.840,-5.69964
6.848,-5.65422
6.856,-5.60895
6.864,-5.56150
6.872,-5.50959
6.880,-5.45117
6.888,-5.38454
6.896,-5.30846
6.904,-5.22225
6.912,-5.12575
6.920,-5.01908
6.928,-4.90221
6.936,-4.77423
6.944,-4.63244
6.952,-4.47140
6.960,-4.28205
6.968,-4.05102
6.976,-3.76032
6.984,-3.38739
6.992,-2.90557
7.000,-2.28520
7.008,-1.49511
7.016,-0.50473
7.024,0.71346
7.032,2.18118
7.040,3.91165
7.048,5.90714
7.056,8.15707
7.064,10.63676
7.072,13.30700
7.080,16.11456
7.088,18.99357
7.096,21.86805
7.104,24.65522
7.112,27.26974
7.120,29.62841
7.128,31.65512
7.136,33.28543
7.144,34.47057
7.152,35.18022
7.160,35.40404
7.168,35.15187
7.176,34.45245
7.184,33.35102
7.192,31.90591
7.200,30.18437
7.208,28.25815
7.216,26.19903
7.224,24.07475
7.232,21.94547
7.240,19.86113
7.248,17.85974
7.256,15.96667
7.264,14.19507
7.272,12.54722
7.280,11.01659
7.288,9.59049
7.296,8.25292
7.304,6.98720
7.312,5.77830
7.320,4.61453
7.328,3.48856
7.336,2.39775
7.344,1.34384
7.352,0.33229
7.360,-0.62880
7.368,-1.52973
7.376,-2.36037
7.384,-3.11119
7.392,-3.77409
7.400,-4.34315
7.408,-4.81511
7.416,-5.18966
7.424,-5.46954
7.432,-5.66050
7.440,-5.77105
7.448,-5.81209
7.456,-5.79634
7.464,-5.73763
7.472,-5.65014
7.480,-5.54755
7.488,-5.44234
7.496,-5.34524
7.504,-5.26482
7.512,-5.20734
7.520,-5.17669
7.528,-5.17455
7.536,-5.20058
7.544,-5.25286
7.552,-5.32824
7.560,-5.42283
7.568,-5.53242
7.576,-5.65277
7.584,-5.77982
7.592,-5.90984
7.600,-6.03943
7.608,-6.16566
7.616,-6.28610
7.624,-6.39900
7.632,-6.50330
7.640,-6.59873
7.648,-6.68577
7.656,-6.76559
7.664,-6.83991
7.672,-6.91088
7.680,-6.98090
7.688,-7.05231
7.696,-7.12721
7.704,-7.20717
7.712,-7.29293
7.720,-7.38431
7.728,-7.48006
7.736,-7.57793
7.744,-7.67491
7.752,-7.76751
7.760,-7.85223
7.768,-7.92593
7.776,-7.98631
7.784,-8.03210
7.792,-8.06330
7.800,-8.08113
7.808,-8.08792
7.816,-8.08680
7.824,-8.08137
7.832,-8.07527
7.840,-8.07176
7.848,-8.07336
7.856,-8.08150
7.864,-8.09630
7.872,-8.11646
7.880,-8.13933
7.888,-8.16113
7.896,-8.17735
7.904,-8.18332
7.912,-8.17484
7.920,-8.14877
7.928,-8.10359
7.936,-8.03962
7.944,-7.95904
7.952,-7.86552
7.960,-7.76372
7.968,-7.65862
7.976,-7.55486
7.984,-7.45625
7.992,-7.36538
8.000,-7.28342
8.008,-7.21013
8.016,-7.14402
8.024,-7.08270
8.032,-7.02332
8.040,-6.96291
8.048,-6.89877
8.056,-6.82860
8.064,-6.75058
8.072,-6.66323
8.080,-6.56539
8.088,-6.45616
8.096,-6.33497
8.104,-6.20174
8.112,-6.05706
8.120,-5.90227
8.128,-5.73940
8.136,-5.57082
8.144,-5.39855
8.152,-5.22333
8.160,-5.04337
8.168,-4.85313
8.176,-4.64224
8.184,-4.39466
8.192,-4.08853
8.200,-3.69653
8.208,-3.18713
8.216,-2.52649
8.224,-1.68113
8.232,-0.62103
8.240,0.67699
8.248,2.22612
8.256,4.02679
8.264,6.06478
8.272,8.31040
8.280,10.71886
8.288,13.23200
8.296,15.78114
8.304,18.29085
8.312,20.68331
8.320,22.88284
8.328,24.82038
8.336,26.43752
8.344,27.68977
8.352,28.54881
8.360,29.00356
8.368,29.06008
8.376,28.74022
8.384,28.07937
8.392,27.12338
8.400,25.92503
8.408,24.54047
8.416,23.02583
8.424,21.43431
8.432,19.81383
8.440,18.20532
8.448,16.64163
8.456,15.14698
8.464,13.73699
8.472,12.41909
8.480,11.19344
8.488,10.05417
8.496,8.99088
8.504,7.99037
8.512,7.03844
8.520,6.12153
8.528,5.22822
8.536,4.35027
8.544,3.48329
8.552,2.62691
8.560,1.78448
8.568,0.96248
8.576,0.16972
8.584,-0.58358
8.592,-1.28678
8.600,-1.92973
8.608,-2.50363
8.616,-3.00171
8.624,-3.41984
8.632,-3.75688
8.640,-4.01485
8.648,-4.19888
8.656,-4.31683
8.664,-4.37883
8.672,-4.39650
8.680,-4.38223
8.688,-4.34851
8.696,-4.30724
8.704,-4.26925
8.712,-4.24385
8.720,-4.23853
8.728,-4.25867
8.736,-4.30748
8.744,-4.38595
8.752,-4.49302
8.760,-4.62581
8.768,-4.78004
8.776,-4.95040
8.784,-5.13107
8.792,-5.31610
8.800,-5.49988
8.808,-5.67742
8.816,-5.84465
8.824,-5.99863
8.832,-6.13770
8.840,-6.26153
8.848,-6.37107
8.856,-6.46837
8.864,-6.55630
8.872,-6.63811
8.880,-6.71705
8.888,-6.79587
8.896,-6.87661
8.904,-6.96034
8.912,-7.04714
8.920,-7.13611
8.928,-7.22545
8.936,-7.31266
8.944,-7.39484
8.952,-7.46899
8.960,-7.53246
8.968,-7.58319
8.976,-7.62004
8.984,-7.64283
8.992,-7.65240
9.000,-7.65039
9.008,-7.63908
9.016,-7.62111
9.024,-7.59913
9.032,-7.57566
9.040,-7.55282
9.048,-7.53225
9.056,-7.51506
9.064,-7.50182
9.072,-7.49260
9.080,-7.48706
9.088,-7.48446
9.096,-7.48380
9.104,-7.48385
9.112,-7.48323
9.120,-7.48054
9.128,-7.47440
9.136,-7.46363
9.144,-7.44730
9.152,-7.42488
9.160,-7.39627
9.168,-7.36184
9.176,-7.32234
9.184,-7.27876
9.192,-7.23220
9.200,-7.18361
9.208,-7.13373
9.216,-7.08293
9.224,-7.03121
9.232,-6.97814
9.240,-6.92296
9.248,-6.86454
9.256,-6.80151
9.264,-6.73232
9.272,-6.65548
9.280,-6.56971
9.288,-6.47425
9.296,-6.36905
9.304,-6.25486
9.312,-6.13326
9.320,-6.00642
9.328,-5.87670
9.336,-5.74603
9.344,-5.61516
9.352,-5.48281
9.360,-5.34493
9.368,-5.19403
9.376,-5.01873
9.384,-4.80363
9.392,-4.52942
9.400,-4.17332
9.408,-3.70981
9.416,-3.11166
9.424,-2.35141
9.432,-1.40321
9.440,-0.24501
9.448,1.13904
9.456,2.75610
9.464,4.60255
9.472,6.66234
9.480,8.90607
9.488,11.29117
9.496,13.76313
9.504,16.25784
9.512,18.70485
9.520,21.03128
9.528,23.16608
9.536,25.04417
9.544,26.61028
9.552,27.82193
9.560,28.65158
9.568,29.08766
9.576,29.13455
9.584,28.81149
9.592,28.15059
9.600,27.19414
9.608,25.99142
9.616,24.59539
9.624,23.05951
9.632,21.43487
9.640,19.76780
9.648,18.09820
9.656,16.45846
9.664,14.87312
9.672,13.35898
9.680,11.92583
9.688,10.57729
9.696,9.31201
9.704,8.12481
9.712,7.00788
9.720,5.95191
9.728,4.94720
9.736,3.98469
9.744,3.05690
9.752,2.15872
9.760,1.28797
9.768,0.44568
9.776,-0.36395
9.784,-1.13399
9.792,-1.85545
9.800,-2.51832
9.808,-3.11268
9.816,-3.62996
9.824,-4.06400
9.832,-4.41190
9.840,-4.67455
9.848,-4.85659
9.856,-4.96609
9.864,-5.01371
9.872,-5.01172
9.880,-4.97297
9.888,-4.90990
9.896,-4.83384
9.904,-4.75453
9.912,-4.67988
9.920,-4.61595
9.928,-4.56699
9.936,-4.53556
9.944,-4.52262
9.952,-4.52773
9.960,-4.54917
9.968,-4.58426
9.976,-4.62961
9.984,-4.68163
9.992,-4.73702
10.000,-4.79325
10.008,-4.84898
10.016,-4.90422
10.024,-4.96025
10.032,-5.01932
10.040,-5.08414
10.048,-5.15738
10.056,-5.24105
10.064,-5.33621
10.072,-5.44267
10.080,-5.55909
10.088,-5.68314
10.096,-5.81188
10.104,-5.94210
10.112,-6.07077
10.120,-6.19521
10.128,-6.31336
10.136,-6.42373
10.144,-6.52543
10.152,-6.61801
10.160,-6.70131
10.168,-6.77543
10.176,-6.84068
10.184,-6.89759
10.192,-6.94701
10.200,-6.99001
10.208,-7.02785
10.216,-7.06179
10.224,-7.09287
10.232,-7.12174
10.240,-7.14848
10.248,-7.17254
10.256,-7.19276
10.264,-7.20753
10.272,-7.21503
10.280,-7.21356
10.288,-7.20187
10.296,-7.17942
10.304,-7.14663
10.312,-7.10484
10.320,-7.05623
10.328,-7.00355
10.336,-6.94968
10.344,-6.89727
10.352,-6.84833
10.360,-6.80401
10.368,-6.76456
10.376,-6.72942
10.384,-6.69756
10.392,-6.66779
10.400,-6.63910
10.408,-6.61079
10.416,-6.58250
10.424,-6.55400
10.432,-6.52490
10.440,-6.49436
10.448,-6.46095
10.456,-6.42261
10.464,-6.37689
10.472,-6.32133
10.480,-6.25388
10.488,-6.17336
10.496,-6.07974
10.504,-5.97427
10.512,-5.85935
10.520,-5.73814
10.528,-5.61390
10.536,-5.48936
10.544,-5.36593
10.552,-5.24314
10.560,-5.11823
10.568,-4.98591
10.576,-4.83823
10.584,-4.66457
10.592,-4.45164
10.600,-4.18356
10.608,-3.84203
10.616,-3.40669
10.624,-2.85576
10.632,-2.16697
10.640,-1.31886
10.648,-0.29241
10.656,0.92717
10.664,2.34839
10.672,3.97161
10.680,5.78731
10.688,7.77484
10.696,9.90190
10.704,12.12488
10.712,14.39023
10.720,16.63689
10.728,18.79956
10.736,20.81257
10.744,22.61390
10.752,24.14907
10.760,25.37430
10.768,26.25897
10.776,26.78700
10.784,26.95724
10.792,26.78275
10.800,26.28934
10.808,25.51320
10.816,24.49824
10.824,23.29300
10.832,21.94758
10.840,20.51062
10.848,19.02679
10.856,17.53460
10.864,16.06505
10.872,14.64090
10.880,13.27680
10.888,11.98004
10.896,10.75182
10.904,9.58889
10.912,8.48523
10.920,7.43364
10.928,6.42702
10.936,5.45935
10.944,4.52616
10.952,3.62471
10.960,2.75395
10.968,1.91437
10.976,1.10781
10.984,0.33733
10.992,-0.39296
11.000,-1.07805
11.008,-1.71233
11.016,-2.28997
11.024,-2.80542
11.032,-3.25397
11.040,-3.63224
11.048,-3.93862
11.056,-4.17352
11.064,-4.33949
11.072,-4.44113
11.080,-4.48497
11.088,-4.47918
11.096,-4.43332
11.104,-4.35786
11.112,-4.26379
11.120,-4.16206
11.128,-4.06296
11.136,-3.97559
11.144,-3.90727
11.152,-3.86318
11.160,-3.84618
11.168,-3.85681
11.176,-3.89358
11.184,-3.95337
11.192,-4.03196
11.200,-4.12449
11.208,-4.22601
11.216,-4.33192
11.224,-4.43837
11.232,-4.54259
11.240,-4.64318
11.248,-4.74005
11.256,-4.83431
11.264,-4.92777
11.272,-5.02248
11.280,-5.12022
11.288,-5.22220
11.296,-5.32899
11.304,-5.44060
11.312,-5.55658
11.320,-5.67619
11.328,-5.79844
11.336,-5.92206
11.344,-6.04548
11.352,-6.16685
11.360,-6.28416
11.368,-6.39541
11.376,-6.49876
11.384,-6.59267
11.392,-6.67600
11.400,-6.74810
11.408,-6.80887
11.416,-6.85886
11.424,-6.89937
11.432,-6.93241
11.440,-6.96058
11.448,-6.98683
11.456,-7.01411
11.464,-7.04495
11.472,-7.08104
11.480,-7.12301
11.488,-7.17030
11.496,-7.22129
11.504,-7.27361
11.512,-7.32459
11.520,-7.37173
11.528,-7.41309
11.536,-7.44762
11.544,-7.47521
11.552,-7.49651
11.560,-7.51262
11.568,-7.52463
11.576,-7.53321
11.584,-7.53826
11.592,-7.53882
11.600,-7.53313
11.608,-7.51899
11.616,-7.49415
11.624,-7.45691
11.632,-7.40659
11.640,-7.34390
11.648,-7.27103
11.656,-7.19145
11.664,-7.10939
11.672,-7.02913
11.680,-6.95422
11.688,-6.88685
11.696,-6.82737
11.704,-6.77427
11.712,-6.72441
11.720,-6.67349
11.728,-6.61669
11.736,-6.54921
11.744,-6.46667
11.752,-6.36505
11.760,-6.24034
11.768,-6.08774
11.776,-5.90052
11.784,-5.66893
11.792,-5.37921
11.800,-5.01310
11.808,-4.54800
11.816,-3.95793
11.824,-3.21523
11.832,-2.29284
11.840,-1.16710
11.848,0.17940
11.856,1.75504
11.864,3.55679
11.872,5.56864
11.880,7.76083
11.888,10.09029
11.896,12.50214
11.904,14.93222
11.912,17.31055
11.920,19.56533
11.928,21.62726
11.936,23.43367
11.944,24.93223
11.952,26.08385
11.960,26.86454
11.968,27.26618
11.976,27.29624
11.984,26.97642
11.992,26.34043
12.000,25.43114
12.008,24.29739
12.016,22.99066
12.024,21.56204
12.032,20.05950
12.040,18.52581
12.048,16.99710
12.056,15.50210
12.064,14.06194
12.072,12.69053
12.080,11.39518
12.088,10.17756
12.096,9.03479
12.104,7.96057
12.112,6.94639
12.120,5.98274
12.128,5.06019
12.136,4.17042
12.144,3.30691
12.152,2.46552
12.160,1.64478
12.168,0.84591
12.176,0.07270
12.184,-0.66886
12.192,-1.37102
12.200,-2.02493
12.208,-2.62128
12.216,-3.15098
12.224,-3.60588
12.232,-3.97948
12.240,-4.26748
12.248,-4.46846
12.256,-4.58427
12.264,-4.62028
12.272,-4.58535
12.280,-4.49151
12.288,-4.35327
12.296,-4.18664
12.304,-4.00801
12.312,-3.83294
12.320,-3.67512
12.328,-3.54553
12.336,-3.45198
12.344,-3.39902
12.352,-3.38808
12.360,-3.41793
12.368,-3.48525
12.376,-3.58528
12.384,-3.71245
12.392,-3.86087
12.400,-4.02469
12.408,-4.19841
12.416,-4.37695
12.424,-4.55570
12.432,-4.73060
12.440,-4.89818
12.448,-5.05562
12.456,-5.20084
12.464,-5.33259
12.472,-5.45052
12.480,-5.55515
12.488,-5.64795
12.496,-5.73110
12.504,-5.80743
12.512,-5.87999
12.520,-5.95175
12.528,-6.02507
12.536,-6.10137
12.544,-6.18083
12.552,-6.26236
12.560,-6.34378
12.568,-6.42232
12.576,-6.49512
12.584,-6.55981
12.592,-6.61496
12.600,-6.66025
12.608,-6.69644
12.616,-6.72508
12.624,-6.74811
12.632,-6.76743
12.640,-6.78450
12.648,-6.80009
12.656,-6.81415
12.664,-6.82585
12.672,-6.83375
12.680,-6.83617
12.688,-6.83154
12.696,-6.81888
12.704,-6.79809
12.712,-6.77010
12.720,-6.73684
12.728,-6.70094
12.736,-6.66532
12.744,-6.63270
12.752,-6.60515
12.760,-6.58373
12.768,-6.56829
12.776,-6.55749
12.784,-6.54892
12.792,-6.53954
12.800,-6.52610
12.808,-6.50562
12.816,-6.47582
12.824,-6.43536
12.832,-6.38388
12.840,-6.32192
12.848,-6.25060
12.856,-6.17136
12.864,-6.08552
12.872,-5.99405
12.880,-5.89732
12.888,-5.79505
12.896,-5.68644
12.904,-5.57045
12.912,-5.44614
12.920,-5.31315
12.928,-5.17209
12.936,-5.02470
12.944,-4.87393
12.952,-4.72352
12.960,-4.57739
12.968,-4.43861
12.976,-4.30830
12.984,-4.18436
12.992,-4.06043
13.000,-3.92497
13.008,-3.76092
13.016,-3.54576
13.024,-3.25226
13.032,-2.84987
13.040,-2.30670
13.048,-1.59190
13.056,-0.67839
13.064,0.45443
13.072,1.81815
13.080,3.41312
13.088,5.22703
13.096,7.23409
13.104,9.39535
13.112,11.66002
13.120,13.96791
13.128,16.25263
13.136,18.44546
13.144,20.47927
13.152,22.29231
13.160,23.83152
13.168,25.05521
13.176,25.93496
13.184,26.45662
13.192,26.62043
13.200,26.44027
13.208,25.94207
13.216,25.16166
13.224,24.14204
13.232,22.93050
13.240,21.57573
13.248,20.12512
13.256,18.62257
13.264,17.10680
13.272,15.61025
13.280,14.15847
13.288,12.76999
13.296,11.45650
13.304,10.22333
13.312,9.07024
13.320,7.99240
13.328,6.98161
13.336,6.02770
13.344,5.11990
13.352,4.24824
13.360,3.40468
13.368,2.58394
13.376,1.78387
13.384,1.00548
13.392,0.25246
13.400,-0.46940
13.408,-1.15301
13.416,-1.79072
13.424,-2.37498
13.432,-2.89886
13.440,-3.35648
13.448,-3.74334
13.456,-4.05655
13.464,-4.29513
13.472,-4.46020
13.480,-4.55515
13.488,-4.58577
13.496,-4.56009
13.504,-4.48820
13.512,-4.38178
13.520,-4.25359
13.528,-4.11674
13.536,-3.98399
13.544,-3.86703
13.552,-3.77571
13.560,-3.71750
13.568,-3.69701
13.576,-3.71582
13.584,-3.77249
13.592,-3.86298
13.600,-3.98125
13.608,-4.12003
13.616,-4.27172
13.624,-4.42917
13.632,-4.58636
13.640,-4.73873
13.648,-4.88330
13.656,-5.01849
13.664,-5.14377
13.672,-5.25927
13.680,-5.36548
13.688,-5.46298
13.696,-5.55239
13.704,-5.63445
13.712,-5.70999
13.720,-5.78005
13.728,-5.84582
13.736,-5.90863
13.744,-5.96986
13.752,-6.03088
13.760,-6.09292
13.768,-6.15702
13.776,-6.22391
13.784,-6.29391
13.792,-6.36695
13.800,-6.44247
13.808,-6.51955
13.816,-6.59697
13.824,-6.67322
13.832,-6.74659
13.840,-6.81519
13.848,-6.87704
13.856,-6.93015
13.864,-6.97278
13.872,-7.00359
13.880,-7.02187
13.888,-7.02771
13.896,-7.02197
13.904,-7.00627
13.912,-6.98273
13.920,-6.95381
13.928,-6.92193
13.936,-6.88931
13.944,-6.85769
13.952,-6.82821
13.960,-6.80138
13.968,-6.77705
13.976,-6.75455
13.984,-6.73287
13.992,-6.71084
14.000,-6.68746
14.008,-6.66206
14.016,-6.63457
14.024,-6.60557
14.032,-6.57631
14.040,-6.54853
14.048,-6.52406
14.056,-6.50443
14.064,-6.49039
14.072,-6.48153
14.080,-6.47613
14.088,-6.47109
14.096,-6.46229
14.104,-6.44495
14.112,-6.41426
14.120,-6.36600
14.128,-6.29714
14.136,-6.20627
14.144,-6.09382
14.152,-5.96200
14.160,-5.81446
14.168,-5.65555
14.176,-5.48941
14.184,-5.31881
14.192,-5.14400
14.200,-4.96155
14.208,-4.76347
14.216,-4.53666
14.224,-4.26292
14.232,-3.91939
14.240,-3.47964
14.248,-2.91522
14.256,-2.19753
14.264,-1.30007
14.272,-0.20084
14.280,1.11537
14.288,2.65476
14.296,4.41287
14.304,6.37347
14.312,8.50826
14.320,10.77728
14.328,13.13014
14.336,15.50776
14.344,17.84491
14.352,20.07311
14.360,22.12420
14.368,23.93411
14.376,25.44676
14.384,26.61755
14.392,27.41618
14.400,27.82836
14.408,27.85636
14.416,27.51829
14.424,26.84634
14.432,25.88404
14.440,24.68295
14.448,23.29910
14.456,21.78935
14.464,20.20802
14.472,18.60396
14.480,17.01823
14.488,15.48265
14.496,14.01912
14.504,12.63985
14.512,11.34835
14.520,10.14100
14.528,9.00898
14.536,7.94026
14.544,6.92152
14.552,5.93983
14.560,4.98393
14.568,4.04527
14.576,3.11864
14.584,2.20255
14.592,1.29929
14.600,0.41469
14.608,-0.44241
14.616,-1.26101
14.624,-2.02898
14.632,-2.73416
14.640,-3.36548
14.648,-3.91387
14.656,-4.37293
14.664,-4.73935
14.672,-5.01304
14.680,-5.19709
14.688,-5.29764
14.696,-5.32355
14.704,-5.28606
14.712,-5.19822
14.720,-5.07429
14.728,-4.92893
14.736,-4.77638
14.744,-4.62966
14.752,-4.49977
14.760,-4.39514
14.768,-4.32124
14.776,-4.28051
14.784,-4.27258
14.792,-4.29479
14.800,-4.34295
14.808,-4.41217
14.816,-4.49770
14.824,-4.59556
14.832,-4.70281
14.840,-4.81754
14.848,-4.93847
14.856,-5.06439
14.864,-5.19368
14.872,-5.32399
14.880,-5.45222
14.888,-5.57490
14.896,-5.68873
14.904,-5.79126
14.912,-5.88130
14.920,-5.95926
14.928,-6.02695
14.936,-6.08734
14.944,-6.14392
14.952,-6.20017
14.960,-6.25899
14.968,-6.32228
14.976,-6.39074
14.984,-6.46382
14.992,-6.53989
15.000,-6.61656
15.008,-6.69101
15.016,-6.76040
15.024,-6.82218
15.032,-6.87423
15.040,-6.91498
15.048,-6.94340
15.056,-6.95897
15.064,-6.96169
15.072,-6.95213
15.080,-6.93148
15.088,-6.90162
15.096,-6.86510
15.104,-6.82492
15.112,-6.78418
15.120,-6.74565
15.128,-6.71125
15.136,-6.68170
15.144,-6.65640
15.152,-6.63348
15.160,-6.61016
15.168,-6.58320
15.176,-6.54947
15.184,-6.50644
15.192,-6.45265
15.200,-6.38802
15.208,-6.31395
15.216,-6.23327
15.224,-6.14991
15.232,-6.06842
15.240,-5.99333
15.248,-5.92847
15.256,-5.87640
15.264,-5.83791
15.272,-5.81185
15.280,-5.79517
15.288,-5.78332
15.296,-5.77064
15.304,-5.75108
15.312,-5.71872
15.320,-5.66840
15.328,-5.59619
15.336,-5.49980
15.344,-5.37884
15.352,-5.23501
15.360,-5.07193
15.368,-4.89493
15.376,-4.71044
15.384,-4.52522
15.392,-4.34544
15.400,-4.17565
15.408,-4.01784
15.416,-3.87061
15.424,-3.72848
15.432,-3.58162
15.440,-3.41574
15.448,-3.21239
15.456,-2.94952
15.464,-2.60237
15.472,-2.14459
15.480,-1.54965
15.488,-0.79255
15.496,0.14841
15.504,1.28960
15.512,2.64018
15.520,4.20036
15.528,5.96013
15.536,7.89843
15.544,9.98313
15.552,12.17173
15.560,14.41284
15.568,16.64842
15.576,18.81645
15.584,20.85411
15.592,22.70097
15.600,24.30221
15.608,25.61147
15.616,26.59328
15.624,27.22479
15.632,27.49669
15.640,27.41329
15.648,26.99186
15.656,26.26112
15.664,25.25922
15.672,24.03122
15.680,22.62629
15.688,21.09485
15.696,19.48571
15.704,17.84351
15.712,16.20672
15.720,14.60632
15.728,13.06523
15.736,11.59855
15.744,10.21432
15.752,8.91478
15.760,7.69780
15.768,6.55836
15.776,5.48994
15.784,4.48567
15.792,3.53919
15.800,2.64522
15.808,1.79978
15.816,1.00017
15.824,0.24465
15.832,-0.46781
15.840,-1.13780
15.848,-1.76548
15.856,-2.35051
15.864,-2.89181
15.872,-3.38736
15.880,-3.83412
15.888,-4.22817
15.896,-4.56510
15.904,-4.84066
15.912,-5.05156
15.920,-5.19637
15.928,-5.27621
15.936,-5.29529
15.944,-5.26096
15.952,-5.18340
15.960,-5.07491
15.968,-4.94889
15.976,-4.81869
15.984,-4.69650
15.992,-4.59244
16.000,-4.51396
16.008,-4.46553
16.016,-4.44878
16.024,-4.46282
16.032,-4.50487
16.040,-4.57090
16.048,-4.65627
16.056,-4.75629
16.064,-4.86658
16.072,-4.98346
16.080,-5.10408
16.088,-5.22651
16.096,-5.34972
16.104,-5.47331
16.112,-5.59728
16.120,-5.72164
16.128,-5.84611
16.136,-5.96992
16.144,-6.09180
16.152,-6.21010
16.160,-6.32304
16.168,-6.42902
16.176,-6.52696
16.184,-6.61648
16.192,-6.69801
16.200,-6.77276
16.208,-6.84238
16.216,-6.90864
16.224,-6.97287
16.232,-7.03555
16.240,-7.09605
16.248,-7.15251
16.256,-7.20218
16.264,-7.24190
16.272,-7.26877
16.280,-7.28082
16.288,-7.27757
16.296,-7.26025
16.304,-7.23176
16.312,-7.19625
16.320,-7.15853
16.328,-7.12328
16.336,-7.09435
16.344,-7.07418
16.352,-7.06350
16.360,-7.06127
16.368,-7.06488
16.376,-7.07059
16.384,-7.07403
16.392,-7.07087
16.400,-7.05733
16.408,-7.03075
16.416,-6.98987
16.424,-6.93497
16.432,-6.86778
16.440,-6.79124
16.448,-6.70904
16.456,-6.62513
16.464,-6.54315
16.472,-6.46601
16.480,-6.39552
16.488,-6.33227
16.496,-6.27572
16.504,-6.22438
16.512,-6.17615
16.520,-6.12860
16.528,-6.07912
16.536,-6.02510
16.544,-5.96388
16.552,-5.89285
16.560,-5.80947
16.568,-5.71149
16.576,-5.59714
16.584,-5.46549
16.592,-5.31665
16.600,-5.15201
16.608,-4.97418
16.616,-4.78677
16.624,-4.59375
16.632,-4.39865
16.640,-4.20336
16.648,-4.00696
16.656,-3.80440
16.664,-3.58557
16.672,-3.33466
16.680,-3.03023
16.688,-2.64589
16.696,-2.15178
16.704,-1.51659
16.712,-0.71016
16.720,0.29387
16.728,1.51522
16.736,2.96440
16.744,4.64064
16.752,6.53034
16.760,8.60648
16.768,10.82891
16.776,13.14570
16.784,15.49535
16.792,17.80997
16.800,20.01894
16.808,22.05309
16.816,23.84872
16.824,25.35140
16.832,26.51907
16.840,27.32421
16.848,27.75497
16.856,27.81523
16.864,27.52346
16.872,26.91090
16.880,26.01888
16.888,24.89589
16.896,23.59426
16.904,22.16702
16.912,20.66489
16.920,19.13376
16.928,17.61272
16.936,16.13274
16.944,14.71614
16.952,13.37663
16.960,12.12005
16.968,10.94550
16.976,9.84686
16.984,8.81443
16.992,7.83662
17.000,6.90143
17.008,5.99778
17.016,5.11650
17.024,4.25102
17.032,3.39771
17.040,2.55611
17.048,1.72880
17.056,0.92124
17.064,0.14130
17.072,-0.60133
17.080,-1.29599
17.088,-1.93204
17.096,-2.49987
17.104,-2.99186
17.112,-3.40317
17.120,-3.73216
17.128,-3.98051
17.136,-4.15300
17.144,-4.25710
17.152,-4.30235
17.160,-4.29974
17.168,-4.26099
17.176,-4.19790
17.184,-4.12167
17.192,-4.04241
17.200,-3.96876
17.208,-3.90769
17.216,-3.86452
17.224,-3.84309
17.232,-3.84605
17.240,-3.87510
17.248,-3.93132
17.256,-4.01524
17.264,-4.12690
17.272,-4.26565
17.280,-4.43001
17.288,-4.61738
17.296,-4.82396
17.304,-5.04470
17.312,-5.27345
17.320,-5.50331
17.328,-5.72708
17.336,-5.93785
17.344,-6.12959
17.352,-6.29770
17.360,-6.43940
17.368,-6.55403
17.376,-6.64296
17.384,-6.70939
17.392,-6.75794
17.400,-6.79405
17.408,-6.82343
17.416,-6.85150
17.424,-6.88298
17.432,-6.92153
17.440,-6.96960
17.448,-7.02836
17.456,-7.09771
17.464,-7.17641
17.472,-7.26219
17.480,-7.35203
17.488,-7.44249
17.496,-7.52999
17.504,-7.61121
17.512,-7.68332
17.520,-7.74424
17.528,-7.79284
17.536,-7.82890
17.544,-7.85317
17.552,-7.86713
17.560,-7.87273
17.568,-7.87208
17.576,-7.86707
17.584,-7.85904
17.592,-7.84859
17.600,-7.83549
17.608,-7.81876
17.616,-7.79699
17.624,-7.76867
17.632,-7.73264
17.640,-7.68849
17.648,-7.63673
17.656,-7.57883
17.664,-7.51696
17.672,-7.45360
17.680,-7.39099
17.688,-7.33069
17.696,-7.27322
17.704,-7.21802
17.712,-7.16354
17.720,-7.10761
17.728,-7.04788
17.736,-6.98229
17.744,-6.90937
17.752,-6.82854
17.760,-6.74014
17.768,-6.64533
17.776,-6.54599
17.784,-6.44446
17.792,-6.34330
17.800,-6.24495
17.808,-6.15151
17.816,-6.06430
17.824,-5.98349
17.832,-5.90763
17.840,-5.83315
17.848,-5.75395
17.856,-5.66105
17.864,-5.54243
17.872,-5.38300
17.880,-5.16493
17.888,-4.86802
17.896,-4.47041
17.904,-3.94945
17.912,-3.28276
17.920,-2.44953
17.928,-1.43191
17.936,-0.21654
17.944,1.20392
17.952,2.82933
17.960,4.65081
17.968,6.64975
17.976,8.79731
17.984,11.05449
17.992,13.37302
18.000,15.69699
18.008,17.96525
18.016,20.11452
18.024,22.08279
18.032,23.81283
18.040,25.25546
18.048,26.37226
18.056,27.13755
18.064,27.53948
18.072,27.58027
18.080,27.27557
18.088,26.65316
18.096,25.75094
18.104,24.61450
18.112,23.29424
18.120,21.84240
18.128,20.30999
18.136,18.74405
18.144,17.18533
18.152,15.66668
18.160,14.21220
18.168,12.83708
18.176,11.54816
18.184,10.34499
18.192,9.22134
18.200,8.16686
18.208,7.16890
18.216,6.21430
18.224,5.29102
18.232,4.38957
18.240,3.50397
18.248,2.63234
18.256,1.77694
18.264,0.94379
18.272,0.14185
18.280,-0.61806
18.288,-1.32461
18.296,-1.96714
18.304,-2.53683
18.312,-3.02744
18.320,-3.43569
18.328,-3.76141
18.336,-4.00731
18.344,-4.17858
18.352,-4.28244
18.360,-4.32757
18.368,-4.32354
18.376,-4.28031
18.384,-4.20783
18.392,-4.11559
18.400,-4.01250
18.408,-3.90670
18.416,-3.80555
18.424,-3.71560
18.432,-3.64259
18.440,-3.59127
18.448,-3.56533
18.456,-3.56709
18.464,-3.59734
18.472,-3.65521
18.480,-3.73821
18.488,-3.84256
18.496,-3.96354
18.504,-4.09614
18.512,-4.23557
18.520,-4.37773
18.528,-4.51950
18.536,-4.65883
18.544,-4.79456
18.552,-4.92624
18.560,-5.05376
18.568,-5.17717
18.576,-5.29647
18.584,-5.41150
18.592,-5.52204
18.600,-5.62785
18.608,-5.72882
18.616,-5.82512
18.624,-5.91726
18.632,-6.00607
18.640,-6.09264
18.648,-6.17813
18.656,-6.26358
18.664,-6.34962
18.672,-6.43633
18.680,-6.52311
18.688,-6.60873
18.696,-6.69154
18.704,-6.76977
18.712,-6.84181
18.720,-6.90650
18.728,-6.96330
18.736,-7.01234
18.744,-7.05433
18.752,-7.09044
18.760,-7.12198
18.768,-7.15013
18.776,-7.17561
18.784,-7.19849
18.792,-7.21810
18.800,-7.23314
18.808,-7.24189
18.816,-7.24260
18.824,-7.23382
18.832,-7.21475
18.840,-7.18545
18.848,-7.14683
18.856,-7.10056
18.864,-7.04874
18.872,-6.99357
18.880,-6.93701
18.888,-6.88047
18.896,-6.82467
18.904,-6.76962
18.912,-6.71473
18.920,-6.65900
18.928,-6.60117
18.936,-6.53988
18.944,-6.47371
18.952,-6.40120
18.960,-6.32085
18.968,-6.23118
18.976,-6.13085
18.984,-6.01885
18.992,-5.89473
19.000,-5.75882
19.008,-5.61244
19.016,-5.45798
19.024,-5.29890
19.032,-5.13946
19.040,-4.98423
19.048,-4.83733
19.056,-4.70134
19.064,-4.57612
19.072,-4.45758
19.080,-4.33674
19.088,-4.19910
19.096,-4.02457
19.104,-3.78797
19.112,-3.46010
19.120,-3.00930
19.128,-2.40347
19.136,-1.61240
19.144,-0.61031
19.152,0.62160
19.160,2.09268
19.168,3.80068
19.176,5.73014
19.184,7.85158
19.192,10.12164
19.200,12.48445
19.208,14.87409
19.216,17.21809
19.224,19.44170
19.232,21.47236
19.240,23.24422
19.248,24.70204
19.256,25.80438
19.264,26.52572
19.272,26.85747
19.280,26.80786
19.288,26.40063
19.296,25.67282
19.304,24.67177
19.312,23.45162
19.320,22.06960
19.328,20.58232
19.336,19.04251
19.344,17.49621
19.352,15.98090
19.360,14.52439
19.368,13.14469
19.376,11.85058
19.384,10.64292
19.392,9.51631
19.400,8.46101
19.408,7.46490
19.416,6.51523
19.424,5.60009
19.432,4.70958
19.440,3.83655
19.448,2.97699
19.456,2.13005
19.464,1.29789
19.472,0.48529
19.480,-0.30081
19.488,-1.05187
19.496,-1.75822
19.504,-2.40978
19.512,-2.99663
19.520,-3.50981
19.528,-3.94208
19.536,-4.28875
19.544,-4.54822
19.552,-4.72249
19.560,-4.81717
19.568,-4.84121
19.576,-4.80629
19.584,-4.72596
19.592,-4.61459
19.600,-4.48630
19.608,-4.35401
19.616,-4.22864
19.624,-4.11866
19.632,-4.02982
19.640,-3.96524
19.648,-3.92570
19.656,-3.91012
19.664,-3.91610
19.672,-3.94058
19.680,-3.98036
19.688,-4.03268
19.696,-4.09554
19.704,-4.16791
19.712,-4.24964
19.720,-4.34123
19.728,-4.44348
19.736,-4.55704
19.744,-4.68202
19.752,-4.81763
19.760,-4.96197
19.768,-5.11207
19.776,-5.26403
19.784,-5.41343
19.792,-5.55587
19.800,-5.68755
19.808,-5.80579
19.816,-5.90931
19.824,-5.99838
19.832,-6.07465
19.840,-6.14071
19.848,-6.19971
19.856,-6.25480
19.864,-6.30873
19.872,-6.36353
19.880,-6.42039
19.888,-6.47955
19.896,-6.54043
19.904,-6.60172
19.912,-6.66164
19.920,-6.71813
19.928,-6.76907
19.936,-6.81249
19.944,-6.84666
19.952,-6.87021
19.960,-6.88219
19.968,-6.88209
19.976,-6.86994
19.984,-6.84631
19.992,-6.81240
20.000,-6.77000
20.008,-6.72143
20.016,-6.66932
20.024,-6.61636
20.032,-6.56500
20.040,-6.51721
20.048,-6.47429
20.056,-6.43679
20.064,-6.40451
20.072,-6.37661
20.080,-6.35183
20.088,-6.32863
20.096,-6.30551
20.104,-6.28120
20.112,-6.25484
20.120,-6.22615
20.128,-6.19540
20.136,-6.16330
20.144,-6.13077
20.152,-6.09863
20.160,-6.06727
20.168,-6.03649
20.176,-6.00533
20.184,-5.97225
20.192,-5.93528
20.200,-5.89242
20.208,-5.84205
20.216,-5.78332
20.224,-5.71640
20.232,-5.64248
20.240,-5.56342
20.248,-5.48112
20.256,-5.39644
20.264,-5.30807
20.272,-5.21137
20.280,-5.09735
20.288,-4.95210
20.296,-4.75656
20.304,-4.48687
20.312,-4.11513
20.320,-3.61082
20.328,-2.94271
20.336,-2.08127
20.344,-1.00145
20.352,0.31448
20.360,1.87425
20.368,3.67344
20.376,5.69421
20.384,7.90482
20.392,10.26033
20.400,12.70428
20.408,15.17115
20.416,17.58973
20.424,19.88683
20.432,21.99125
20.440,23.83771
20.448,25.37043
20.456,26.54610
20.464,27.33618
20.472,27.72820
20.480,27.72625
20.488,27.35025
20.496,26.63437
20.504,25.62447
20.512,24.37480
20.520,22.94422
20.528,21.39234
20.536,19.77579
20.544,18.14517
20.552,16.54283
20.560,15.00150
20.568,13.54392
20.576,12.18309
20.584,10.92327
20.592,9.76134
20.600,8.68847
20.608,7.69200
20.616,6.75717
20.624,5.86879
20.632,5.01261
20.640,4.17641
20.648,3.35086
20.656,2.53010
20.664,1.71209
20.672,0.89869
20.680,0.09553
20.688,-0.68856
20.696,-1.44224
20.704,-2.15268
20.712,-2.80672
20.720,-3.39203
20.728,-3.89818
20.736,-4.31759
20.744,-4.64619
20.752,-4.88383
20.760,-5.03431
20.768,-5.10509
20.776,-5.10676
20.784,-5.05224
20.792,-4.95582
20.800,-4.83220
20.808,-4.69550
20.816,-4.55853
20.824,-4.43215
20.832,-4.32501
20.840,-4.24345
20.848,-4.19167
20.856,-4.17187
20.864,-4.18450
20.872,-4.22845
20.880,-4.30130
20.888,-4.39950
20.896,-4.51863
20.904,-4.65370
20.912,-4.79942
20.920,-4.95052
20.928,-5.10204
20.936,-5.24953
20.944,-5.38936
20.952,-5.51878
20.960,-5.63606
20.968,-5.74045
20.976,-5.83210
20.984,-5.91190
20.992,-5.98136
21.000,-6.04241
21.008,-6.09721
21.016,-6.14795
21.024,-6.19662
21.032,-6.24468
21.040,-6.29295
21.048,-6.34143
21.056,-6.38943
21.064,-6.43578
21.072,-6.47918
21.080,-6.51855
21.088,-6.55331
21.096,-6.58347
21.104,-6.60962
21.112,-6.63277
21.120,-6.65402
21.128,-6.67434
21.136,-6.69423
21.144,-6.71354
21.152,-6.73138
21.160,-6.74616
21.168,-6.75583
21.176,-6.75810
21.184,-6.75089
21.192,-6.73262
21.200,-6.70258
21.208,-6.66106
21.216,-6.60934
21.224,-6.54958
21.232,-6.48441
21.240,-6.41661
21.248,-6.34872
21.256,-6.28266
21.264,-6.21957
21.272,-6.15974
21.280,-6.10269
21.288,-6.04741
21.296,-5.99265
21.304,-5.93726
21.312,-5.88039
21.320,-5.82166
21.328,-5.76115
21.336,-5.69927
21.344,-5.63654
21.352,-5.57335
21.360,-5.50981
21.368,-5.44564
21.376,-5.38025
21.384,-5.31282
21.392,-5.24247
21.400,-5.16839
21.408,-5.08997
21.416,-5.00689
21.424,-4.91915
21.432,-4.82711
21.440,-4.73144
21.448,-4.63310
21.456,-4.53322
21.464,-4.43292
21.472,-4.33320
21.480,-4.23467
21.488,-4.13742
21.496,-4.04061
21.504,-3.94210
21.512,-3.83785
21.520,-3.72123
21.528,-3.58230
21.536,-3.40714
21.544,-3.17751
21.552,-2.87088
21.560,-2.46105
21.568,-1.91951
21.576,-1.21730
21.584,-0.32753
21.592,0.77181
21.600,2.09502
21.608,3.64619
21.616,5.41724
21.624,7.38704
21.632,9.52146
21.640,11.77456
21.648,14.09063
21.656,16.40708
21.664,18.65779
21.672,20.77664
21.680,22.70104
21.688,24.37507
21.696,25.75218
21.704,26.79723
21.712,27.48789
21.720,27.81520
21.728,27.78351
21.736,27.40959
21.744,26.72128
21.752,25.75564
21.760,24.55671
21.768,23.17298
21.776,21.65483
21.784,20.05173
21.792,18.40979
21.800,16.76942
21.808,15.16369
21.816,13.61730
21.824,12.14633
21.832,10.75869
21.840,9.45529
21.848,8.23160
21.856,7.07951
21.864,5.98923
21.872,4.95097
21.880,3.95633
21.888,2.99908
21.896,2.07563
21.904,1.18497
21.912,0.32847
21.920,-0.49057
21.928,-1.26744
21.936,-1.99647
21.944,-2.67160
21.952,-3.28678
21.960,-3.83645
21.968,-4.31593
21.976,-4.72183
21.984,-5.05237
21.992,-5.30762
22.000,-5.48962
22.008,-5.60246
22.016,-5.65218
22.024,-5.64672
22.032,-5.59560
22.040,-5.50971
22.048,-5.40076
22.056,-5.28074
22.064,-5.16125
22.072,-5.05269
22.080,-4.96359
22.088,-4.90000
22.096,-4.86515
22.104,-4.85942
22.112,-4.88066
22.120,-4.92480
22.128,-4.98671
22.136,-5.06108
22.144,-5.14315
22.152,-5.22930
22.160,-5.31718
22.168,-5.40562
22.176,-5.49428
22.184,-5.58316
22.192,-5.67215
22.200,-5.76077
22.208,-5.84810
22.216,-5.93296
22.224,-6.01425
22.232,-6.09130
22.240,-6.16428
22.248,-6.23428
22.256,-6.30318
22.264,-6.37329
22.272,-6.44681
22.280,-6.52524
22.288,-6.60899
22.296,-6.69713
22.304,-6.78753
22.312,-6.87706
22.320,-6.96216
22.328,-7.03929
22.336,-7.10553
22.344,-7.15893
22.352,-7.19875
22.360,-7.22552
22.368,-7.24084
22.376,-7.24712
22.384,-7.24725
22.392,-7.24420
22.400,-7.24069
22.408,-7.23895
22.416,-7.24046
22.424,-7.24586
22.432,-7.25491
22.440,-7.26654
22.448,-7.27894
22.456,-7.28975
22.464,-7.29631
22.472,-7.29591
22.480,-7.28613
22.488,-7.26511
22.496,-7.23178
22.504,-7.18607
22.512,-7.12894
22.520,-7.06225
22.528,-6.98861
22.536,-6.91107
22.544,-6.83276
22.552,-6.75660
22.560,-6.68500
22.568,-6.61961
22.576,-6.56105
22.584,-6.50880
22.592,-6.46115
22.600,-6.41537
22.608,-6.36797
22.616,-6.31512
22.624,-6.25316
22.632,-6.17904
22.640,-6.09076
22.648,-5.98766
22.656,-5.87047
22.664,-5.74119
22.672,-5.60279
22.680,-5.45865
22.688,-5.31205
22.696,-5.16535
22.704,-5.01931
22.712,-4.87224
22.720,-4.71923
22.728,-4.55149
22.736,-4.35587
22.744,-4.11476
22.752,-3.80635
22.760,-3.40529
22.768,-2.88394
22.776,-2.21393
22.784,-1.36827
22.792,-0.32361
22.800,0.93736
22.808,2.42367
22.816,4.13412
22.824,6.05597
22.832,8.16427
22.840,10.42194
22.848,12.78075
22.856,15.18313
22.864,17.56467
22.872,19.85729
22.880,21.99273
22.888,23.90624
22.896,25.54018
22.904,26.84720
22.912,27.79292
22.920,28.35768
22.928,28.53741
22.936,28.34338
22.944,27.80116
22.952,26.94856
22.960,25.83301
22.968,24.50834
22.976,23.03138
22.984,21.45862
22.992,19.84311
23.000,18.23182
23.008,16.66352
23.016,15.16753
23.024,13.76299
23.032,12.45909
23.040,11.25598
23.048,10.14617
23.056,9.11657
23.064,8.15063
23.072,7.23061
23.080,6.33966
23.088,5.46356
23.096,4.59203
23.104,3.71947
23.112,2.84523
23.120,1.97339
23.128,1.11214
23.136,0.27286
23.144,-0.53102
23.152,-1.28528
23.160,-1.97618
23.168,-2.59156
23.176,-3.12185
23.184,-3.56076
23.192,-3.90569
23.200,-4.15796
23.208,-4.32265
23.216,-4.40826
23.224,-4.42614
23.232,-4.38964
23.240,-4.31323
23.248,-4.21151
23.256,-4.09822
23.264,-3.98557
23.272,-3.88366
23.280,-3.80033
23.288,-3.74127
23.296,-3.71019
23.304,-3.70925
23.312,-3.73935
23.320,-3.80034
23.328,-3.89126
23.336,-4.01042
23.344,-4.15548
23.352,-4.32344
23.360,-4.51071
23.368,-4.71309
23.376,-4.92587
23.384,-5.14389
23.392,-5.36172
23.400,-5.57385
23.408,-5.77500
23.416,-5.96049
23.424,-6.12669
23.432,-6.27142
23.440,-6.39412
23.448,-6.49589
23.456,-6.57924
23.464,-6.64768
23.472,-6.70519
23.480,-6.75580
23.488,-6.80316
23.496,-6.85035
23.504,-6.89967
23.512,-6.95262
23.520,-7.00991
23.528,-7.07154
23.536,-7.13701
23.544,-7.20553
23.552,-7.27622
23.560,-7.34836
23.568,-7.42146
23.576,-7.49525
23.584,-7.56951
23.592,-7.64386
23.600,-7.71749
23.608,-7.78898
23.616,-7.85625
23.624,-7.91663
23.632,-7.96711
23.640,-8.00468
23.648,-8.02676
23.656,-8.03160
23.664,-8.01854
23.672,-7.98826
23.680,-7.94273
23.688,-7.88509
23.696,-7.81934
23.704,-7.74990
23.712,-7.68112
23.720,-7.61672
23.728,-7.55940
23.736,-7.51049
23.744,-7.46986
23.752,-7.43602
23.760,-7.40645
23.768,-7.37804
23.776,-7.34765
23.784,-7.31262
23.792,-7.27120
23.800,-7.22272
23.808,-7.16765
23.816,-7.10730
23.824,-7.04344
23.832,-6.97776
23.840,-6.91145
23.848,-6.84486
23.856,-6.77737
23.864,-6.70753
23.872,-6.63332
23.880,-6.55252
23.888,-6.46309
23.896,-6.36348
23.904,-6.25269
23.912,-6.13020
23.920,-5.99553
23.928,-5.84759
23.936,-5.68390
23.944,-5.49964
23.952,-5.28699
23.960,-5.03448
23.968,-4.72678
23.976,-4.34478
23.984,-3.86609
23.992,-3.26596
24.000,-2.51862
24.008,-1.59908
24.016,-0.48525
24.024,0.83979
24.032,2.38542
24.040,4.15132
24.048,6.12584
24.056,8.28480
24.064,10.59133
24.072,12.99647
24.080,15.44088
24.088,17.85743
24.096,20.17466
24.104,22.32087
24.112,24.22838
24.120,25.83772
24.128,27.10130
24.136,27.98624
24.144,28.47621
24.152,28.57197
24.160,28.29080
24.168,27.66467
24.176,26.73761
24.184,25.56224
24.192,24.19601
24.200,22.69725
24.208,21.12147
24.216,19.51822
24.224,17.92875
24.232,16.38459
24.240,14.90714
24.248,13.50825
24.256,12.19147
24.264,10.95392
24.272,9.78826
24.280,8.68478
24.288,7.63311
24.296,6.62356
24.304,5.64812
24.312,4.70095
24.320,3.77856
24.328,2.87976
24.336,2.00551
24.344,1.15866
24.352,0.34372
24.360,-0.43331
24.368,-1.16529
24.376,-1.84422
24.384,-2.46177
24.392,-3.00983
24.400,-3.48126
24.408,-3.87065
24.416,-4.17493
24.424,-4.39395
24.432,-4.53076
24.440,-4.59173
24.448,-4.58629
24.456,-4.52651
24.464,-4.42629
24.472,-4.30040
24.480,-4.16331
24.488,-4.02817
24.496,-3.90582
24.504,-3.80426
24.512,-3.72837
24.520,-3.68014
24.528,-3.65919
24.536,-3.66351
24.544,-3.69026
24.552,-3.73642
24.560,-3.79929
24.568,-3.87671
24.576,-3.96703
24.584,-4.06893
24.592,-4.18108
24.600,-4.30199
24.608,-4.42976
24.616,-4.56219
24.624,-4.69685
24.632,-4.83131
24.640,-4.96346
24.648,-5.09169
24.656,-5.21510
24.664,-5.33362
24.672,-5.44799
24.680,-5.55967
24.688,-5.67057
24.696,-5.78287
24.704,-5.89863
24.712,-6.01952
24.720,-6.14659
24.728,-6.28008
24.736,-6.41932
24.744,-6.56275
24.752,-6.70797
24.760,-6.85187
24.768,-6.99086
24.776,-7.12105
24.784,-7.23854
24.792,-7.33972
24.800,-7.42158
24.808,-7.48214
24.816,-7.52067
24.824,-7.53799
24.832,-7.53643
24.840,-7.51976
24.848,-7.49274
24.856,-7.46072
24.864,-7.42893
24.872,-7.40190
24.880,-7.38291
24.888,-7.37367
24.896,-7.37419
24.904,-7.38286
24.912,-7.39678
24.920,-7.41224
24.928,-7.42524
24.936,-7.43201
24.944,-7.42943
24.952,-7.41524
24.960,-7.38809
24.968,-7.34740
24.976,-7.29327
24.984,-7.22625
24.992,-7.14723
25.000,-7.05736
25.008,-6.95801
25.016,-6.85072
25.024,-6.73718
25.032,-6.61918
25.040,-6.49847
25.048,-6.37662
25.056,-6.25489
25.064,-6.13407
25.072,-6.01448
25.080,-5.89591
25.088,-5.77784
25.096,-5.65953
25.104,-5.54032
25.112,-5.41977
25.120,-5.29776
25.128,-5.17420
25.136,-5.04858
25.144,-4.91905
25.152,-4.78138
25.160,-4.62783
25.168,-4.44617
25.176,-4.21917
25.184,-3.92455
25.192,-3.53572
25.200,-3.02310
25.208,-2.35614
25.216,-1.50572
25.224,-0.44695
25.232,0.83802
25.240,2.35733
25.248,4.10724
25.256,6.07069
25.264,8.21674
25.272,10.50113
25.280,12.86790
25.288,15.25206
25.296,17.58309
25.304,19.78909
25.312,21.80107
25.320,23.55707
25.328,25.00574
25.336,26.10911
25.344,26.84424
25.352,27.20382
25.360,27.19561
25.368,26.84095
25.376,26.17259
25.384,25.23202
25.392,24.06663
25.400,22.72668
25.408,21.26250
25.416,19.72185
25.424,18.14772
25.432,16.57673
25.440,15.03815
25.448,13.55357
25.456,12.13716
25.464,10.79647
25.472,9.53339
25.480,8.34542
25.488,7.22687
25.496,6.17016
25.504,5.16704
25.512,4.20975
25.520,3.29201
25.528,2.40979
25.536,1.56171
25.544,0.74908
25.552,-0.02454
25.560,-0.75399
25.568,-1.43328
25.576,-2.05638
25.584,-2.61784
25.592,-3.11321
25.600,-3.53936
25.608,-3.89454
25.616,-4.17845
25.624,-4.39223
25.632,-4.53848
25.640,-4.62136
25.648,-4.64663
25.656,-4.62172
25.664,-4.55564
25.672,-4.45871
25.680,-4.34214
25.688,-4.21739
25.696,-4.09540
25.704,-3.98581
25.712,-3.89628
25.720,-3.83213
25.728,-3.79613
25.736,-3.78878
25.744,-3.80862
25.752,-3.85280
25.760,-3.91768
25.768,-3.99940
25.776,-4.09430
25.784,-4.19925
25.792,-4.31181
25.800,-4.43020
25.808,-4.55330
25.816,-4.68043
25.824,-4.81109
25.832,-4.94472
25.840,-5.08030
25.848,-5.21618
25.856,-5.34990
25.864,-5.47833
25.872,-5.59801
25.880,-5.70562
25.888,-5.79863
25.896,-5.87589
25.904,-5.93793
25.912,-5.98713
25.920,-6.02740
25.928,-6.06366
25.936,-6.10106
25.944,-6.14418
25.952,-6.19625
25.960,-6.25868
25.968,-6.33087
25.976,-6.41042
25.984,-6.49350
25.992,-6.57555
26.000,-6.65194
26.008,-6.71863
26.016,-6.77262
26.024,-6.81229
26.032,-6.83735
26.040,-6.84878
26.048,-6.84839
26.056,-6.83853
26.064,-6.82164
26.072,-6.79998
26.080,-6.77546
26.088,-6.74958
26.096,-6.72342
26.104,-6.69778
26.112,-6.67320
26.120,-6.65011
26.128,-6.62882
26.136,-6.60959
26.144,-6.59256
26.152,-6.57771
26.160,-6.56475
26.168,-6.55309
26.176,-6.54178
26.184,-6.52957
26.192,-6.51498
26.200,-6.49647
26.208,-6.47268
26.216,-6.44254
26.224,-6.40549
26.232,-6.36150
26.240,-6.31106
26.248,-6.25509
26.256,-6.19481
26.264,-6.13163
26.272,-6.06705
26.280,-6.00253
26.288,-5.93939
26.296,-5.87866
26.304,-5.82081
26.312,-5.76553
26.320,-5.71138
26.328,-5.65552
26.336,-5.59327
26.344,-5.51782
26.352,-5.41979
26.360,-5.28681
26.368,-5.10324
26.376,-4.84987
26.384,-4.50414
26.392,-4.04054
26.400,-3.43173
26.408,-2.65010
26.416,-1.66999
26.424,-0.47015
26.432,0.96350
26.440,2.63533
26.448,4.53790
26.456,6.65058
26.464,8.93919
26.472,11.35666
26.480,13.84479
26.488,16.33700
26.496,18.76189
26.504,21.04722
26.512,23.12419
26.520,24.93128
26.528,26.41767
26.536,27.54574
26.544,28.29262
26.552,28.65063
26.560,28.62676
26.568,28.24139
26.576,27.52641
26.584,26.52303
26.592,25.27936
26.600,23.84781
26.608,22.28237
26.616,20.63593
26.624,18.95768
26.632,17.29079
26.640,15.67055
26.648,14.12314
26.656,12.66519
26.664,11.30408
26.672,10.03908
26.680,8.86309
26.688,7.76469
26.696,6.73039
26.704,5.74652
26.712,4.80082
26.720,3.88340
26.728,2.98726
26.736,2.10830
26.744,1.24518
26.752,0.39904
26.760,-0.42676
26.768,-1.22690
26.776,-1.99427
26.784,-2.72024
26.792,-3.39513
26.800,-4.00873
26.808,-4.55112
26.816,-5.01349
26.824,-5.38907
26.832,-5.67388
26.840,-5.86746
26.848,-5.97325
26.856,-5.99867
26.864,-5.95478
26.872,-5.85563
26.880,-5.71719
26.888,-5.55618
26.896,-5.38879
26.904,-5.22952
26.912,-5.09021
26.920,-4.97939
26.928,-4.90211
26.936,-4.86003
26.944,-4.85190
26.952,-4.87424
26.960,-4.92222
26.968,-4.99047
26.976,-5.07391
26.984,-5.16827
26.992,-5.27040
27.000,-5.37828
27.008,-5.49077
27.016,-5.60729
27.024,-5.72753
27.032,-5.85118
27.040,-5.97785
27.048,-6.10704
27.056,-6.23809
27.064,-6.37014
27.072,-6.50216
27.080,-6.63285
27.088,-6.76079
27.096,-6.88445
27.104,-7.00233
27.112,-7.11306
27.120,-7.21549
27.128,-7.30877
27.136,-7.39240
27.144,-7.46617
27.152,-7.53009
27.160,-7.58426
27.168,-7.62873
27.176,-7.66333
27.184,-7.68764
27.192,-7.70102
27.200,-7.70276
27.208,-7.69230
27.216,-7.66956
27.224,-7.63520
27.232,-7.59082
27.240,-7.53900
27.248,-7.48318
27.256,-7.42737
27.264,-7.37568
27.272,-7.33186
27.280,-7.29875
27.288,-7.27780
27.296,-7.26877
27.304,-7.26952
27.312,-7.27619
27.320,-7.28355
27.328,-7.28564
27.336,-7.27648
27.344,-7.25083
27.352,-7.20487
27.360,-7.13662
27.368,-7.04614
27.376,-6.93544
27.384,-6.80813
27.392,-6.66891
27.400,-6.52286
27.408,-6.37486
27.416,-6.22889
27.424,-6.08769
27.432,-5.95250
27.440,-5.82307
27.448,-5.69790
27.456,-5.57462
27.464,-5.45045
27.472,-5.32281
27.480,-5.18982
27.488,-5.05073
27.496,-4.90622
27.504,-4.75838
27.512,-4.61048
27.520,-4.46644
27.528,-4.33010
27.536,-4.20431
27.544,-4.08990
27.552,-3.98468
27.560,-3.88264
27.568,-3.77324
27.576,-3.64111
27.584,-3.46599
27.592,-3.22305
27.600,-2.88370
27.608,-2.41675
27.616,-1.79026
27.624,-0.97374
27.632,0.05905
27.640,1.32729
27.648,2.84026
27.656,4.59509
27.664,6.57510
27.672,8.74920
27.680,11.07237
27.688,13.48724
27.696,15.92683
27.704,18.31813
27.712,20.58630
27.720,22.65903
27.728,24.47085
27.736,25.96687
27.744,27.10585
27.752,27.86219
27.760,28.22696
27.768,28.20767
27.776,27.82712
27.784,27.12124
27.792,26.13615
27.800,24.92462
27.808,23.54227
27.816,22.04384
27.824,20.47975
27.832,18.89357
27.840,17.32029
27.848,15.78582
27.856,14.30733
27.864,12.89444
27.872,11.55082
27.880,10.27586
27.888,9.06640
27.896,7.91799
27.904,6.82599
27.912,5.78614
27.920,4.79494
27.928,3.84971
27.936,2.94857
27.944,2.09037
27.952,1.27459
27.960,0.50126
27.968,-0.22908
27.976,-0.91547
27.984,-1.55654
27.992,-2.15044
28.000,-2.69485
28.008,-3.18696
28.016,-3.62365
28.024,-4.00179
28.032,-4.31860
28.040,-4.57222
28.048,-4.76212
28.056,-4.88953
28.064,-4.95766
28.072,-4.97179
28.080,-4.93922
28.088,-4.86897
28.096,-4.77137
28.104,-4.65744
28.112,-4.53817
28.120,-4.42386
28.128,-4.32347
28.136,-4.24420
28.144,-4.19123
28.152,-4.16762
28.160,-4.17441
28.168,-4.21077
28.176,-4.27420
28.184,-4.36089
28.192,-4.46599
28.200,-4.58414
28.208,-4.70980
28.216,-4.83771
28.224,-4.96325
28.232,-5.08266
28.240,-5.19330
28.248,-5.29368
28.256,-5.38349
28.264,-5.46347
28.272,-5.53523
28.280,-5.60093
28.288,-5.66303
28.296,-5.72389
28.304,-5.78554
28.312,-5.84951
28.320,-5.91672
28.328,-5.98760
28.336,-6.06214
28.344,-6.14008
28.352,-6.22104
28.360,-6.30448
28.368,-6.38976
28.376,-6.47597
28.384,-6.56185
28.392,-6.64576
28.400,-6.72570
28.408,-6.79939
28.416,-6.86447
28.424,-6.91872
28.432,-6.96030
28.440,-6.98801
28.448,-7.00142
28.456,-7.00093
28.464,-6.98774
28.472,-6.96377
28.480,-6.93145
28.488,-6.89356
28.496,-6.85309
28.504,-6.81303
28.512,-6.77624
28.520,-6.74533
28.528,-6.72242
28.536,-6.70904
28.544,-6.70592
28.552,-6.71290
28.560,-6.72882
28.568,-6.75158
28.576,-6.77834
28.584,-6.80581
28.592,-6.83067
28.600,-6.85002
28.608,-6.86174
28.616,-6.86470
28.624,-6.85886
28.632,-6.84509
28.640,-6.82498
28.648,-6.80046
28.656,-6.77351
28.664,-6.74582
28.672,-6.71852
28.680,-6.69209
28.688,-6.66627
28.696,-6.64010
28.704,-6.61200
28.712,-6.57992
28.720,-6.54135
28.728,-6.49341
28.736,-6.43266
28.744,-6.35487
28.752,-6.25453
28.760,-6.12427
28.768,-5.95417
28.776,-5.73112
28.784,-5.43838
28.792,-5.05551
28.800,-4.55878
28.808,-3.92217
28.816,-3.11888
28.824,-2.12346
28.832,-0.91420
28.840,0.52413
28.848,2.19767
28.856,4.10113
28.864,6.21605
28.872,8.51001
28.880,10.93692
28.888,13.43860
28.896,15.94751
28.904,18.39058
28.912,20.69340
28.920,22.78477
28.928,24.60088
28.936,26.08898
28.944,27.21030
28.952,27.94199
28.960,28.27798
28.968,28.22855
28.976,27.81887
28.984,27.08652
28.992,26.07820
29.000,24.84623
29.008,23.44483
29.016,21.92689
29.024,20.34120
29.032,18.73050
29.040,17.13030
29.048,15.56853
29.056,14.06570
29.064,12.63547
29.072,11.28559
29.080,10.01877
29.088,8.83374
29.096,7.72620
29.104,6.68962
29.112,5.71597
29.120,4.79633
29.128,3.92143
29.136,3.08222
29.144,2.27047
29.152,1.47953
29.160,0.70507
29.168,-0.05422
29.176,-0.79613
29.184,-1.51489
29.192,-2.20163
29.200,-2.84534
29.208,-3.43428
29.216,-3.95736
29.224,-4.40553
29.232,-4.77276
29.240,-5.05665
29.248,-5.25860
29.256,-5.38365
29.264,-5.44000
29.272,-5.43831
29.280,-5.39080
29.288,-5.31041
29.296,-5.20982
29.304,-5.10072
29.312,-4.99322
29.320,-4.89550
29.328,-4.81368
29.336,-4.75187
29.344,-4.71235
29.352,-4.69583
29.360,-4.70182
29.368,-4.72891
29.376,-4.77506
29.384,-4.83781
29.392,-4.91445
29.400,-5.00217
29.408,-5.09823
29.416,-5.20019
29.424,-5.30611
29.432,-5.41461
29.440,-5.52489
29.448,-5.63661
29.456,-5.74960
29.464,-5.86362
29.472,-5.97813
29.480,-6.09212
29.488,-6.20416
29.496,-6.31252
29.504,-6.41545
29.512,-6.51153
29.520,-6.60000
29.528,-6.68096
29.536,-6.75545
29.544,-6.82519
29.552,-6.89222
29.560,-6.95840
29.568,-7.02492
29.576,-7.09196
29.584,-7.15858
29.592,-7.22288
29.600,-7.28226
29.608,-7.33385
29.616,-7.37498
29.624,-7.40358
29.632,-7.41839
29.640,-7.41914
29.648,-7.40645
29.656,-7.38174
29.664,-7.34699
29.672,-7.30450
29.680,-7.25667
29.688,-7.20580
29.696,-7.15396
29.704,-7.10295
29.712,-7.05424
29.720,-7.00900
29.728,-6.96807
29.736,-6.93196
29.744,-6.90068
29.752,-6.87363
29.760,-6.84946
29.768,-6.82596
29.776,-6.80017
29.784,-6.76868
29.792,-6.72803
29.800,-6.67523
29.808,-6.60822
29.816,-6.52616
29.824,-6.42959
29.832,-6.32021
29.840,-6.20064
29.848,-6.07399
29.856,-5.94349
29.864,-5.81212
29.872,-5.68236
29.880,-5.55609
29.888,-5.43447
29.896,-5.31795
29.904,-5.20641
29.912,-5.09915
29.920,-4.99503
29.928,-4.89238
29.936,-4.78891
29.944,-4.68135
29.952,-4.56499
29.960,-4.43310
29.968,-4.27623
29.976,-4.08164
29.984,-3.83293
29.992,-3.51002
30.000,-3.08957
30.008,-2.54594
30.016,-1.85259
30.024,-0.98401
30.032,0.08207
30.040,1.36214
30.048,2.86457
30.056,4.58742
30.064,6.51679
30.072,8.62596
30.080,10.87548
30.088,13.21427
30.096,15.58186
30.104,17.91156
30.112,20.13420
30.120,22.18224
30.128,23.99371
30.136,25.51579
30.144,26.70761
30.152,27.54214
30.160,28.00707
30.168,28.10473
30.176,27.85110
30.184,27.27407
30.192,26.41121
30.200,25.30710
30.208,24.01045
30.216,22.57134
30.224,21.03851
30.232,19.45707
30.240,17.86661
30.248,16.29981
30.256,14.78174
30.264,13.32957
30.272,11.95295
30.280,10.65476
30.288,9.43238
30.296,8.27908
30.304,7.18572
30.312,6.14228
30.320,5.13932
30.328,4.16913
30.336,3.22646
30.344,2.30888
30.352,1.41678
30.360,0.55296
30.368,-0.27784
30.376,-1.06949
30.384,-1.81500
30.392,-2.50695
30.400,-3.13787
30.408,-3.70072
30.416,-4.18927
30.424,-4.59861
30.432,-4.92564
30.440,-5.16950
30.448,-5.33204
30.456,-5.41805
30.464,-5.43532
30.472,-5.39438
30.480,-5.30795
30.488,-5.19009
30.496,-5.05521
30.504,-4.91704
30.512,-4.78774
30.520,-4.67717
30.528,-4.59254
30.536,-4.53828
30.544,-4.51620
30.552,-4.52585
30.560,-4.56498
30.568,-4.63006
30.576,-4.71680
30.584,-4.82064
30.592,-4.93719
30.600,-5.06263
30.608,-5.19387
30.616,-5.32864
30.624,-5.46542
30.632,-5.60327
30.640,-5.74153
30.648,-5.87959
30.656,-6.01675
30.664,-6.15213
30.672,-6.28471
30.680,-6.41345
30.688,-6.53736
30.696,-6.65550
30.704,-6.76696
30.712,-6.87075
30.720,-6.96583
30.728,-7.05109
30.736,-7.12563
30.744,-7.18889
30.752,-7.24103
30.760,-7.28302
30.768,-7.31678
30.776,-7.34504
30.784,-7.37094
30.792,-7.39765
30.800,-7.42779
30.808,-7.46295
30.816,-7.50343
30.824,-7.54814
30.832,-7.59475
30.840,-7.64012
30.848,-7.68079
30.856,-7.71351
30.864,-7.73572
30.872,-7.74595
30.880,-7.74388
30.888,-7.73033
30.896,-7.70692
30.904,-7.67569
30.912,-7.63858
30.920,-7.59710
30.928,-7.55207
30.936,-7.50353
30.944,-7.45081
30.952,-7.39280
30.960,-7.32819
30.968,-7.25591
30.976,-7.17542
30.984,-7.08698
30.992,-6.99175
31.000,-6.89171
31.008,-6.78933
31.016,-6.68716
31.024,-6.58731
31.032,-6.49098
31.040,-6.39824
31.048,-6.30800
31.056,-6.21822
31.064,-6.12629
31.072,-6.02945
31.080,-5.92525
31.088,-5.81186
31.096,-5.68833
31.104,-5.55460
31.112,-5.41146
31.120,-5.26019
31.128,-5.10211
31.136,-4.93782
31.144,-4.76637
31.152,-4.58423
31.160,-4.38433
31.168,-4.15518
31.176,-3.88032
31.184,-3.53824
31.192,-3.10283
31.200,-2.54460
31.208,-1.83256
31.216,-0.93668
31.224,0.16919
31.232,1.50433
31.240,3.07825
31.248,4.88838
31.256,6.91847
31.264,9.13800
31.272,11.50272
31.280,13.95631
31.288,16.43306
31.296,18.86151
31.304,21.16852
31.312,23.28357
31.320,25.14286
31.328,26.69281
31.336,27.89272
31.344,28.71661
31.352,29.15387
31.360,29.20899
31.368,28.90038
31.376,28.25843
31.384,27.32312
31.392,26.14121
31.400,24.76337
31.408,23.24132
31.416,21.62525
31.424,19.96149
31.432,18.29077
31.440,16.64691
31.448,15.05608
31.456,13.53667
31.464,12.09962
31.472,10.74921
31.480,9.48413
31.488,8.29882
31.496,7.18481
31.504,6.13211
31.512,5.13046
31.520,4.17045
31.528,3.24434
31.536,2.34658
31.544,1.47405
31.552,0.62605
31.560,-0.19593
31.568,-0.98844
31.576,-1.74637
31.584,-2.46333
31.592,-3.13196
31.600,-3.74447
31.608,-4.29312
31.616,-4.77097
31.624,-5.17255
31.632,-5.49462
31.640,-5.73666
31.648,-5.90124
31.656,-5.99402
31.664,-6.02346
31.672,-6.00020
31.680,-5.93627
31.688,-5.84419
31.696,-5.73608
31.704,-5.62285
31.712,-5.51373
31.720,-5.41594
31.728,-5.33463
31.736,-5.27306
31.744,-5.23286
31.752,-5.21436
31.760,-5.21702
31.768,-5.23963
31.776,-5.28053
31.784,-5.33770
31.792,-5.40877
31.800,-5.49106
31.808,-5.58165
31.816,-5.67766
31.824,-5.77636
31.832,-5.87545
31.840,-5.97323
31.848,-6.06865
31.856,-6.16138
31.864,-6.25174
31.872,-6.34053
31.880,-6.42878
31.888,-6.51748
31.896,-6.60715
31.904,-6.69765
31.912,-6.78795
31.920,-6.87614
31.928,-6.95963
31.936,-7.03549
31.944,-7.10097
31.952,-7.15402
31.960,-7.19371
31.968,-7.22044
31.976,-7.23588
31.984,-7.24276
31.992,-7.24439
32.000,-7.24420
32.008,-7.24525
32.016,-7.24983
32.024,-7.25919
32.032,-7.27337
32.040,-7.29127
32.048,-7.31077
32.056,-7.32898
32.064,-7.34269
32.072,-7.34869
32.080,-7.34425
32.088,-7.32749
32.096,-7.29755
32.104,-7.25479
32.112,-7.20064
32.120,-7.13740
32.128,-7.06789
32.136,-6.99500
32.144,-6.92139
32.152,-6.84918
32.160,-6.77976
32.168,-6.71376
32.176,-6.65117
32.184,-6.59148
32.192,-6.53385
32.200,-6.47736
32.208,-6.42112
32.216,-6.36433
32.224,-6.30640
32.232,-6.24680
32.240,-6.18501
32.248,-6.12043
32.256,-6.05229
32.264,-5.97969
32.272,-5.90158
32.280,-5.81682
32.288,-5.72427
32.296,-5.62284
32.304,-5.51167
32.312,-5.39026
32.320,-5.25864
32.328,-5.11735
32.336,-4.96740
32.344,-4.81003
32.352,-4.64636
32.360,-4.47688
32.368,-4.30076
32.376,-4.11508
32.384,-3.91382
32.392,-3.68695
32.400,-3.41958
32.408,-3.09149
32.416,-2.67729
32.424,-2.14739
32.432,-1.46978
32.440,-0.61278
32.448,0.45172
32.456,1.74472
32.464,3.27684
32.472,5.04573
32.480,7.03443
32.488,9.21117
32.496,11.53028
32.504,13.93443
32.512,16.35777
32.520,18.72972
32.528,20.97906
32.536,23.03795
32.544,24.84566
32.552,26.35161
32.560,27.51761
32.568,28.31930
32.576,28.74662
32.584,28.80352
32.592,28.50687
32.600,27.88478
32.608,26.97441
32.616,25.81950
32.624,24.46784
32.632,22.96866
32.640,21.37030
32.648,19.71808
32.656,18.05255
32.664,16.40802
32.672,14.81157
32.680,13.28264
32.688,11.83312
32.696,10.46800
32.704,9.18650
32.712,7.98342
32.720,6.85072
32.728,5.77902
32.736,4.75893
32.744,3.78218
32.752,2.84238
32.760,1.93537
32.768,1.05935
32.776,0.21470
32.784,-0.59637
32.792,-1.37016
32.800,-2.10188
32.808,-2.78588
32.816,-3.41597
32.824,-3.98572
32.832,-4.48884
32.840,-4.91970
32.848,-5.27394
32.856,-5.54909
32.864,-5.74515
32.872,-5.86489
32.880,-5.91400
32.888,-5.90081
32.896,-5.83576
32.904,-5.73074
32.912,-5.59825
32.920,-5.45068
32.928,-5.29956
32.936,-5.15501
32.944,-5.02534
32.952,-4.91678
32.960,-4.83345
32.968,-4.77738
32.976,-4.74876
32.984,-4.74618
32.992,-4.76703
33.000,-4.80784
33.008,-4.86472
33.016,-4.93375
33.024,-5.01135
33.032,-5.09451
33.040,-5.18094
33.048,-5.26913
33.056,-5.35834
33.064,-5.44840
33.072,-5.53964
33.080,-5.63256
33.088,-5.72773
33.096,-5.82551
33.104,-5.92604
33.112,-6.02911
33.120,-6.13424
33.128,-6.24072
33.136,-6.34765
33.144,-6.45408
33.152,-6.55906
33.160,-6.66181
33.168,-6.76174
33.176,-6.85842
33.184,-6.95152
33.192,-7.04069
33.200,-7.12546
33.208,-7.20511
33.216,-7.27878
33.224,-7.34551
33.232,-7.40441
33.240,-7.45481
33.248,-7.49634
33.256,-7.52892
33.264,-7.55265
33.272,-7.56769
33.280,-7.57412
33.288,-7.57189
33.296,-7.56086
33.304,-7.54091
33.312,-7.51216
33.320,-7.47512
33.328,-7.43078
33.336,-7.38066
33.344,-7.32667
33.352,-7.27093
33.360,-7.21551
33.368,-7.16213
33.376,-7.11192
33.384,-7.06530
33.392,-7.02202
33.400,-6.98122
33.408,-6.94174
33.416,-6.90228
33.424,-6.86170
33.432,-6.81916
33.440,-6.77423
33.448,-6.72687
33.456,-6.67720
33.464,-6.62527
33.472,-6.57071
33.480,-6.51248
33.488,-6.44872
33.496,-6.37694
33.504,-6.29429
33.512,-6.19806
33.520,-6.08622
33.528,-5.95775
33.536,-5.81289
33.544,-5.65298
33.552,-5.48008
33.560,-5.29624
33.568,-5.10263
33.576,-4.89849
33.584,-4.68012
33.592,-4.44006
33.600,-4.16648
33.608,-3.84290
33.616,-3.44844
33.624,-2.95840
33.632,-2.34551
33.640,-1.58166
33.648,-0.64006
33.656,0.50224
33.664,1.86175
33.672,3.44602
33.680,5.25152
33.688,7.26222
33.696,9.44904
33.704,11.77030
33.712,14.17336
33.720,16.59708
33.728,18.97506
33.736,21.23938
33.744,23.32426
33.752,25.16959
33.760,26.72380
33.768,27.94617
33.776,28.80843
33.784,29.29557
33.792,29.40615
33.800,29.15180
33.808,28.55626
33.816,27.65380
33.824,26.48718
33.832,25.10534
33.840,23.56069
33.848,21.90650
33.856,20.19420
33.864,18.47096
33.872,16.77757
33.880,15.14686
33.888,13.60272
33.896,12.15987
33.904,10.82422
33.912,9.59394
33.920,8.46080
33.928,7.41200
33.936,6.43192
33.944,5.50399
33.952,4.61240
33.960,3.74351
33.968,2.88708
33.976,2.03704
33.984,1.19185
33.992,0.35448
34.000,-0.46814
34.008,-1.26599
34.016,-2.02712
34.024,-2.73897
34.032,-3.38957
34.040,-3.96864
34.048,-4.46834
34.056,-4.88368
34.064,-5.21273
34.072,-5.45650
34.080,-5.61870
34.088,-5.70545
34.096,-5.72491
34.104,-5.68699
34.112,-5.60300
34.120,-5.48535
34.128,-5.34709
34.136,-5.20141
34.144,-5.06112
34.152,-4.93797
34.160,-4.84206
34.168,-4.78122
34.176,-4.76053
34.184,-4.78205
34.192,-4.84475
34.200,-4.94477
34.208,-5.07589
34.216,-5.23019
34.224,-5.39882
34.232,-5.57284
34.240,-5.74403
34.248,-5.90558
34.256,-6.05261
34.264,-6.18255
34.272,-6.29515
34.280,-6.39220
34.288,-6.47702
34.296,-6.55372
34.304,-6.62642
34.312,-6.69866
34.320,-6.77286
34.328,-6.85015
34.336,-6.93043
34.344,-7.01261
34.352,-7.09497
34.360,-7.17563
34.368,-7.25288
34.376,-7.32542
34.384,-7.39241
34.392,-7.45347
34.400,-7.50849
34.408,-7.55755
34.416,-7.60080
34.424,-7.63843
34.432,-7.67072
34.440,-7.69803
34.448,-7.72081
34.456,-7.73951
34.464,-7.75447
34.472,-7.76576
34.480,-7.77306
34.488,-7.77566
34.496,-7.77249
34.504,-7.76228
34.512,-7.74380
34.520,-7.71614
34.528,-7.67897
34.536,-7.63273
34.544,-7.57867
34.552,-7.51874
34.560,-7.45530
34.568,-7.39078
34.576,-7.32733
34.584,-7.26650
34.592,-7.20912
34.600,-7.15530
34.608,-7.10452
34.616,-7.05584
34.624,-7.00803
34.632,-6.95975
34.640,-6.90955
34.648,-6.85601
34.656,-6.79771
34.664,-6.73334
34.672,-6.66183
34.680,-6.58248
34.688,-6.49513
34.696,-6.40029
34.704,-6.29915
34.712,-6.19347
34.720,-6.08542
34.728,-5.97710
34.736,-5.87013
34.744,-5.76520
34.752,-5.66179
34.760,-5.55806
34.768,-5.45092
34.776,-5.33619
34.784,-5.20874
34.792,-5.06246
34.800,-4.89019
34.808,-4.68327
34.816,-4.43109
34.824,-4.12045
34.832,-3.73498
34.840,-3.25495
34.848,-2.65747
34.856,-1.91743
34.864,-1.00916
34.872,0.09116
34.880,1.40274
34.888,2.93714
34.896,4.69550
34.904,6.66638
34.912,8.82454
34.920,11.13086
34.928,13.53358
34.936,15.97074
34.944,18.37347
34.952,20.67008
34.960,22.79029
34.968,24.66943
34.976,26.25216
34.984,27.49544
34.992,28.37056
35.000,28.86414
35.008,28.97812
35.016,28.72878
35.024,28.14486
35.032,27.26507
35.040,26.13523
35.048,24.80518
35.056,23.32586
35.064,21.74661
35.072,20.11290
35.080,18.46475
35.088,16.83560
35.096,15.25177
35.104,13.73234
35.112,12.28939
35.120,10.92845
35.128,9.64931
35.136,8.44706
35.144,7.31330
35.152,6.23769
35.160,5.20942
35.168,4.21877
35.176,3.25843
35.184,2.32434
35.192,1.41616
35.200,0.53703
35.208,-0.30709
35.216,-1.10837
35.224,-1.85823
35.232,-2.54835
35.240,-3.17147
35.248,-3.72200
35.256,-4.19630
35.264,-4.59284
35.272,-4.91218
35.280,-5.15681
35.288,-5.33088
35.296,-5.43997
35.304,-5.49075
35.312,-5.49071
35.320,-5.44792
35.328,-5.37072
35.336,-5.26749
35.344,-5.14632
35.352,-5.01478
35.360,-4.87974
35.368,-4.74728
35.376,-4.62264
35.384,-4.51034
35.392,-4.41432
35.400,-4.33808
35.408,-4.28477
35.416,-4.25726
35.424,-4.25797
35.432,-4.28873
35.440,-4.35050
35.448,-4.44307
35.456,-4.56485
35.464,-4.71267
35.472,-4.88184
35.480,-5.06632
35.488,-5.25912
35.496,-5.45289
35.504,-5.64048
35.512,-5.81562
35.520,-5.97344
35.528,-6.11078
35.536,-6.22640
35.544,-6.32087
35.552,-6.39638
35.560,-6.45638
35.568,-6.50510
35.576,-6.54720
35.584,-6.58733
35.592,-6.62982
35.600,-6.67832
35.608,-6.73558
35.616,-6.80316
35.624,-6.88126
35.632,-6.96863
35.640,-7.06255
35.648,-7.15897
35.656,-7.25286
35.664,-7.33868
35.672,-7.41107
35.680,-7.46557
35.688,-7.49925
35.696,-7.51118
35.704,-7.50256
35.712,-7.47664
35.720,-7.43824
35.728,-7.39310
35.736,-7.34711
35.744,-7.30553
35.752,-7.27228
35.760,-7.24954
35.768,-7.23748
35.776,-7.23431
35.784,-7.23651
35.792,-7.23935
35.800,-7.23749
35.808,-7.22582
35.816,-7.20012
35.824,-7.15776
35.832,-7.09810
35.840,-7.02250
35.848,-6.93411
35.856,-6.83731
35.864,-6.73694
35.872,-6.63759
35.880,-6.54282
35.888,-6.45462
35.896,-6.37315
35.904,-6.29665
35.912,-6.22173
35.920,-6.14388
35.928,-6.05808
35.936,-5.95950
35.944,-5.84419
35.952,-5.70961
35.960,-5.55509
35.968,-5.38197
35.976,-5.19350
35.984,-4.99441
35.992,-4.79015
36.000,-4.58588
36.008,-4.38533
36.016,-4.18957
36.024,-3.99587
36.032,-3.79673
36.040,-3.57928
36.048,-3.32508
36.056,-3.01052
36.064,-2.60786
36.072,-2.08675
36.080,-1.41640
36.088,-0.56796
36.096,0.48281
36.104,1.75300
36.112,3.25019
36.120,4.97061
36.128,6.89808
36.136,9.00374
36.144,11.24679
36.152,13.57615
36.160,15.93280
36.168,18.25282
36.176,20.47065
36.184,22.52245
36.192,24.34926
36.200,25.89983
36.208,27.13302
36.216,28.01968
36.224,28.54387
36.232,28.70352
36.240,28.51020
36.248,27.98817
36.256,27.17265
36.264,26.10730
36.272,24.84121
36.280,23.42574
36.288,21.91134
36.296,20.34481
36.304,18.76702
36.312,17.21139
36.320,15.70314
36.328,14.25928
36.336,12.88933
36.344,11.59648
36.352,10.37905
36.360,9.23187
36.368,8.14761
36.376,7.11778
36.384,6.13365
36.392,5.18698
36.400,4.27059
36.408,3.37889
36.416,2.50824
36.424,1.65714
36.432,0.82640
36.440,0.01903
36.448,-0.75991
36.456,-1.50368
36.464,-2.20435
36.472,-2.85338
36.480,-3.44234
36.488,-3.96362
36.496,-4.41113
36.504,-4.78096
36.512,-5.07181
36.520,-5.28536
36.528,-5.42622
36.536,-5.50181
36.544,-5.52185
36.552,-5.49770
36.560,-5.44155
36.568,-5.36550
36.576,-5.28081
36.584,-5.19724
36.592,-5.12268
36.600,-5.06298
36.608,-5.02205
36.616,-5.00195
36.624,-5.00320
36.632,-5.02500
36.640,-5.06560
36.648,-5.12266
36.656,-5.19366
36.664,-5.27630
36.672,-5.36879
36.680,-5.46992
36.688,-5.57901
36.696,-5.69557
36.704,-5.81898
36.712,-5.94815
36.720,-6.08134
36.728,-6.21614
36.736,-6.34962
36.744,-6.47856
36.752,-6.59977
36.760,-6.71039
36.768,-6.80820
36.776,-6.89177
36.784,-6.96066
36.792,-7.01540
36.800,-7.05755
36.808,-7.08946
36.816,-7.11414
36.824,-7.13483
36.832,-7.15471
36.840,-7.17646
36.848,-7.20197
36.856,-7.23214
36.864,-7.26688
36.872,-7.30514
36.880,-7.34517
36.888,-7.38470
36.896,-7.42125
36.904,-7.45234
36.912,-7.47570
36.920,-7.48944
36.928,-7.49221
36.936,-7.48330
36.944,-7.46271
36.952,-7.43115
36.960,-7.39001
36.968,-7.34123
36.976,-7.28717
36.984,-7.23039
36.992,-7.17344
37.000,-7.11853
37.008,-7.06732
37.016,-7.02072
37.024,-6.97884
37.032,-6.94107
37.040,-6.90621
37.048,-6.87272
37.056,-6.83896
37.064,-6.80342
37.072,-6.76486
37.080,-6.72245
37.088,-6.67576
37.096,-6.62474
37.104,-6.56969
37.112,-6.51115
37.120,-6.44972
37.128,-6.38600
37.136,-6.32036
37.144,-6.25285
37.152,-6.18311
37.160,-6.11041
37.168,-6.03370
37.176,-5.95188
37.184,-5.86390
37.192,-5.76899
37.200,-5.66677
37.208,-5.55734
37.216,-5.44118
37.224,-5.31909
37.232,-5.19191
37.240,-5.06029
37.248,-4.92451
37.256,-4.78420
37.264,-4.63826
37.272,-4.48448
37.280,-4.31909
37.288,-4.13614
37.296,-3.92667
37.304,-3.67797
37.312,-3.37297
37.320,-2.99017
37.328,-2.50406
37.336,-1.88636
37.344,-1.10790
37.352,-0.14117
37.360,1.03664
37.368,2.44067
37.376,4.07556
37.384,5.93341
37.392,7.99271
37.400,10.21833
37.408,12.56275
37.416,14.96819
37.424,17.36970
37.432,19.69863
37.440,21.88648
37.448,23.86857
37.456,25.58739
37.464,26.99545
37.472,28.05744
37.480,28.75171
37.488,29.07088
37.496,29.02161
37.504,28.62373
37.512,27.90840
37.520,26.91597
37.528,25.69318
37.536,24.29029
37.544,22.75825
37.552,21.14616
37.560,19.49903
37.568,17.85607
37.576,16.24940
37.584,14.70333
37.592,13.23407
37.600,11.85001
37.608,10.55247
37.616,9.33690
37.624,8.19427
37.632,7.11277
37.640,6.07939
37.648,5.08152
37.656,4.10841
37.664,3.15231
37.672,2.20932
37.680,1.27978
37.688,0.36828
37.696,-0.51686
37.704,-1.36445
37.712,-2.16159
37.720,-2.89501
37.728,-3.55246
37.736,-4.12386
37.744,-4.60227
37.752,-4.98447
37.760,-5.27112
37.768,-5.46667
37.776,-5.57889
37.784,-5.61822
37.792,-5.59697
37.800,-5.52842
37.808,-5.42594
37.816,-5.30221
37.824,-5.16859
37.832,-5.03465
37.840,-4.90796
37.848,-4.79402
37.856,-4.69639
37.864,-4.61699
37.872,-4.55646
37.880,-4.51452
37.888,-4.49039
37.896,-4.48311
37.904,-4.49180
37.912,-4.51578
37.920,-4.55462
37.928,-4.60801
37.936,-4.67565
37.944,-4.75706
37.952,-4.85142
37.960,-4.95754
37.968,-5.07389
37.976,-5.19861
37.984,-5.32957
37.992,-5.46439
38.000,-5.60042
38.008,-5.73482
38.016,-5.86466
38.024,-5.98723
38.032,-6.10031
38.040,-6.20254
38.048,-6.29364
38.056,-6.37457
38.064,-6.44737
38.072,-6.51491
38.080,-6.58056
38.088,-6.64771
38.096,-6.71946
38.104,-6.79821
38.112,-6.88537
38.120,-6.98116
38.128,-7.08445
38.136,-7.19286
38.144,-7.30291
38.152,-7.41043
38.160,-7.51106
38.168,-7.60071
38.176,-7.67602
38.184,-7.73470
38.192,-7.77559
38.200,-7.79870
38.208,-7.80500
38.216,-7.79629
38.224,-7.77486
38.232,-7.74336
38.240,-7.70451
38.248,-7.66090
38.256,-7.61482
38.264,-7.56796
38.272,-7.52128
38.280,-7.47485
38.288,-7.42788
38.296,-7.37885
38.304,-7.32585
38.312,-7.26696
38.320,-7.20057
38.328,-7.12574
38.336,-7.04227
38.344,-6.95075
38.352,-6.85241
38.360,-6.74890
38.368,-6.64208
38.376,-6.53371
38.384,-6.42523
38.392,-6.31762
38.400,-6.21127
38.408,-6.10598
38.416,-6.00098
38.424,-5.89507
38.432,-5.78681
38.440,-5.67468
38.448,-5.55730
38.456,-5.43364
38.464,-5.30314
38.472,-5.16571
38.480,-5.02155
38.488,-4.87081
38.496,-4.71303
38.504,-4.54648
38.512,-4.36737
38.520,-4.16906
38.528,-3.94135
38.536,-3.66987
38.544,-3.33582
38.552,-2.91613
38.560,-2.38424
38.568,-1.71146
38.576,-0.86913
38.584,0.16876
38.592,1.42253
38.600,2.90379
38.608,4.61274
38.616,6.53608
38.624,8.64613
38.632,10.90108
38.640,13.24669
38.648,15.61903
38.656,17.94828
38.664,20.16297
38.672,22.19450
38.680,23.98125
38.688,25.47219
38.696,26.62946
38.704,27.42990
38.712,27.86555
38.720,27.94309
38.728,27.68234
38.736,27.11420
38.744,26.27804
38.752,25.21886
38.760,23.98454
38.768,22.62304
38.776,21.17998
38.784,19.69656
38.792,18.20801
38.800,16.74248
38.808,15.32064
38.816,13.95582
38.824,12.65472
38.832,11.41857
38.840,10.24454
38.848,9.12722
38.856,8.06006
38.864,7.03654
38.872,6.05109
38.880,5.09963
38.888,4.17972
38.896,3.29051
38.904,2.43242
38.912,1.60684
38.920,0.81580
38.928,0.06188
38.936,-0.65174
38.944,-1.32112
38.952,-1.94141
38.960,-2.50693
38.968,-3.01147
38.976,-3.44895
38.984,-3.81424
38.992,-4.10406
39.000,-4.31778
39.008,-4.45787
39.016,-4.53008
39.024,-4.54312
39.032,-4.50806
39.040,-4.43745
39.048,-4.34431
39.056,-4.24117
39.064,-4.13924
39.072,-4.04784
39.080,-3.97406
39.088,-3.92263
39.096,-3.89611
39.104,-3.89520
39.112,-3.91917
39.120,-3.96637
39.128,-4.03463
39.136,-4.12153
39.144,-4.22455
39.152,-4.34107
39.160,-4.46835
39.168,-4.60351
39.176,-4.74363
39.184,-4.88592
39.192,-5.02796
39.200,-5.16794
39.208,-5.30475
39.216,-5.43799
39.224,-5.56780
39.232,-5.69452
39.240,-5.81847
39.248,-5.93967
39.256,-6.05779
39.264,-6.17222
39.272,-6.28219
39.280,-6.38699
39.288,-6.48606
39.296,-6.57910
39.304,-6.66608
39.312,-6.74723
39.320,-6.82300
39.328,-6.89412
39.336,-6.96147
39.344,-7.02613
39.352,-7.08915
39.360,-7.15152
39.368,-7.21399
39.376,-7.27696
39.384,-7.34035
39.392,-7.40362
39.400,-7.46567
39.408,-7.52491
39.416,-7.57942
39.424,-7.62702
39.432,-7.66554
39.440,-7.69302
39.448,-7.70793
39.456,-7.70955
39.464,-7.69812
39.472,-7.67506
39.480,-7.64286
39.488,-7.60485
39.496,-7.56469
39.504,-7.52591
39.512,-7.49133
39.520,-7.46269
39.528,-7.44045
39.536,-7.42371
39.544,-7.41043
39.552,-7.39776
39.560,-7.38259
39.568,-7.36201
39.576,-7.33386
39.584,-7.29698
39.592,-7.25139
39.600,-7.19815
39.608,-7.13921
39.616,-7.07698
39.624,-7.01397
39.632,-6.95236
39.640,-6.89363
39.648,-6.83830
39.656,-6.78578
39.664,-6.73441
39.672,-6.68173
39.680,-6.62482
39.688,-6.56075
39.696,-6.48697
39.704,-6.40162
39.712,-6.30373
39.720,-6.19318
39.728,-6.07062
39.736,-5.93721
39.744,-5.79420
39.752,-5.64236
39.760,-5.48127
39.768,-5.30836
39.776,-5.11791
39.784,-4.90013
39.792,-4.64033
39.800,-4.31861
39.808,-3.90997
39.816,-3.38533
39.824,-2.71319
39.832,-1.86213
39.840,-0.80380
39.848,0.48378
39.856,2.01311
39.864,3.78461
39.872,5.78496
39.880,7.98641
39.888,10.34741
39.896,12.81429
39.904,15.32395
39.912,17.80720
39.920,20.19264
39.928,22.41050
39.936,24.39652
39.944,26.09528
39.952,27.46300
39.960,28.46955
39.968,29.09949
39.976,29.35229
39.984,29.24149
39.992,28.79308
40.000,28.04320
40.008,27.03542
40.016,25.81770
40.024,24.43955
40.032,22.94926
40.040,21.39165
40.048,19.80630
40.056,18.22632
40.064,16.67780
40.072,15.17973
40.080,13.74437
40.088,12.37802
40.096,11.08199
40.104,9.85366
40.112,8.68767
40.120,7.57704
40.128,6.51431
40.136,5.49254
40.144,4.50616
40.152,3.55156
40.160,2.62747
40.168,1.73501
40.176,0.87746
40.184,0.05983
40.192,-0.71167
40.200,-1.43024
40.208,-2.08901
40.216,-2.68150
40.224,-3.20214
40.232,-3.64661
40.240,-4.01233
40.248,-4.29869
40.256,-4.50730
40.264,-4.64204
40.272,-4.70896
40.280,-4.71604
40.288,-4.67285
40.296,-4.59004
40.304,-4.47888
40.312,-4.35069
40.320,-4.21641
40.328,-4.08623
40.336,-3.96912
40.344,-3.87261
40.352,-3.80245
40.360,-3.76244
40.368,-3.75428
40.376,-3.77755
40.384,-3.82986
40.392,-3.90716
40.400,-4.00416
40.408,-4.11492
40.416,-4.23343
40.424,-4.35426
40.432,-4.47300
40.440,-4.58664
40.448,-4.69379
40.456,-4.79472
40.464,-4.89121
40.472,-4.98627
40.480,-5.08360
40.488,-5.18702
40.496,-5.29981
40.504,-5.42412
40.512,-5.56062
40.520,-5.70833
40.528,-5.86469
40.536,-6.02592
40.544,-6.18749
40.552,-6.34474
40.560,-6.49356
40.568,-6.63087
40.576,-6.75508
40.584,-6.86622
40.592,-6.96570
40.600,-7.05598
40.608,-7.13992
40.616,-7.22017
40.624,-7.29859
40.632,-7.37592
40.640,-7.45159
40.648,-7.52377
40.656,-7.58956
40.664,-7.64538
40.672,-7.68742
40.680,-7.71217
40.688,-7.71699
40.696,-7.70053
40.704,-7.66314
40.712,-7.60695
40.720,-7.53579
40.728,-7.45483
40.736,-7.36992
40.744,-7.28684
40.752,-7.21056
40.760,-7.14454
40.768,-7.09038
40.776,-7.04769
40.784,-7.01434
40.792,-6.98688
40.800,-6.96114
40.808,-6.93288
40.816,-6.89824
40.824,-6.85418
40.832,-6.79869
40.840,-6.73083
40.848,-6.65081
40.856,-6.55984
40.864,-6.46000
40.872,-6.35405
40.880,-6.24509
40.888,-6.13619
40.896,-6.02993
40.904,-5.92803
40.912,-5.83107
40.920,-5.73830
40.928,-5.64782
40.936,-5.55674
40.944,-5.46170
40.952,-5.35941
40.960,-5.24733
40.968,-5.12425
40.976,-4.99073
40.984,-4.84913
40.992,-4.70343
41.000,-4.55863
41.008,-4.41982
41.016,-4.29117
41.024,-4.17473
41.032,-4.06936
41.040,-3.96962
41.048,-3.86500
41.056,-3.73942
41.064,-3.57129
41.072,-3.33416
41.080,-2.99792
41.088,-2.53069
41.096,-1.90102
41.104,-1.08038
41.112,-0.04572
41.120,1.21818
41.128,2.71652
41.136,4.44298
41.144,6.37869
41.152,8.49217
41.160,10.74008
41.168,13.06898
41.176,15.41773
41.184,17.72061
41.192,19.91074
41.200,21.92363
41.208,23.70065
41.216,25.19206
41.224,26.35950
41.232,27.17768
41.240,27.63529
41.248,27.73504
41.256,27.49298
41.264,26.93697
41.272,26.10450
41.280,25.04000
41.288,23.79181
41.296,22.40911
41.304,20.93907
41.312,19.42446
41.320,17.90191
41.328,16.40089
41.336,14.94345
41.344,13.54447
41.352,12.21243
41.360,10.95041
41.368,9.75723
41.376,8.62855
41.384,7.55793
41.392,6.53780
41.400,5.56031
41.408,4.61818
41.416,3.70535
41.424,2.81760
41.432,1.95300
41.440,1.11221
41.448,0.29858
41.456,-0.48202
41.464,-1.22172
41.472,-1.91133
41.480,-2.54142
41.488,-3.10334
41.496,-3.59034
41.504,-3.99831
41.512,-4.32630
41.520,-4.57661
41.528,-4.75438
41.536,-4.86700
41.544,-4.92333
41.552,-4.93294
41.560,-4.90552
41.568,-4.85040
41.576,-4.77624
41.584,-4.69081
41.592,-4.60081
41.600,-4.51178
41.608,-4.42808
41.616,-4.35299
41.624,-4.28888
41.632,-4.23740
41.640,-4.19981
41.648,-4.17719
41.656,-4.17063
41.664,-4.18125
41.672,-4.21010
41.680,-4.25787
41.688,-4.32457
41.696,-4.40922
41.704,-4.50970
41.712,-4.62288
41.720,-4.74494
41.728,-4.87186
41.736,-5.00001
41.744,-5.12654
41.752,-5.24971
41.760,-5.36888
41.768,-5.48436
41.776,-5.59708
41.784,-5.70823
41.792,-5.81893
41.800,-5.92995
41.808,-6.04157
41.816,-6.15356
41.824,-6.26514
41.832,-6.37504
41.840,-6.48161
41.848,-6.58302
41.856,-6.67751
41.864,-6.76366
41.872,-6.84061
41.880,-6.90814
41.888,-6.96664
41.896,-7.01685
41.904,-7.05960
41.912,-7.09549
41.920,-7.12473
41.928,-7.14707
41.936,-7.16198
41.944,-7.16881
41.952,-7.16709
41.960,-7.15679
41.968,-7.13847
41.976,-7.11335
41.984,-7.08320
41.992,-7.05018
42.000,-7.01652
42.008,-6.98419
42.016,-6.95463
42.024,-6.92858
42.032,-6.90600
42.040,-6.88615
42.048,-6.86777
42.056,-6.84935
42.064,-6.82948
42.072,-6.80714
42.080,-6.78191
42.088,-6.75413
42.096,-6.72475
42.104,-6.69516
42.112,-6.66688
42.120,-6.64123
42.128,-6.61898
42.136,-6.60013
42.144,-6.58379
42.152,-6.56813
42.160,-6.55057
42.168,-6.52799
42.176,-6.49711
42.184,-6.45492
42.192,-6.39906
42.200,-6.32824
42.208,-6.24238
42.216,-6.14268
42.224,-6.03147
42.232,-5.91177
42.240,-5.78679
42.248,-5.65927
42.256,-5.53078
42.264,-5.40093
42.272,-5.26664
42.280,-5.12154
42.288,-4.95543
42.296,-4.75393
42.304,-4.49847
42.312,-4.16653
42.320,-3.73238
42.328,-3.16820
42.336,-2.44568
42.344,-1.53803
42.352,-0.42233
42.360,0.91792
42.368,2.49027
42.376,4.29115
42.384,6.30428
42.392,8.49993
42.400,10.83528
42.408,13.25583
42.416,15.69784
42.424,18.09167
42.432,20.36559
42.440,22.45000
42.448,24.28143
42.456,25.80623
42.464,26.98348
42.472,27.78717
42.480,28.20722
42.488,28.24943
42.496,27.93438
42.504,27.29528
42.512,26.37524
42.520,25.22404
42.528,23.89482
42.536,22.44087
42.544,20.91277
42.552,19.35603
42.560,17.80928
42.568,16.30307
42.576,14.85933
42.584,13.49151
42.592,12.20516
42.600,10.99915
42.608,9.86708
42.616,8.79895
42.624,7.78285
42.632,6.80643
42.640,5.85836
42.648,4.92934
42.656,4.01290
42.664,3.10583
42.672,2.20827
42.680,1.32354
42.688,0.45768
42.696,-0.38117
42.704,-1.18353
42.712,-1.93927
42.720,-2.63838
42.728,-3.27158
42.736,-3.83093
42.744,-4.31025
42.752,-4.70553
42.760,-5.01514
42.768,-5.24007
42.776,-5.38397
42.784,-5.45310
42.792,-5.45611
42.800,-5.40365
42.808,-5.30782
42.816,-5.18141
42.824,-5.03717
42.832,-4.88698
42.840,-4.74127
42.848,-4.60848
42.856,-4.49491
42.864,-4.40464
42.872,-4.33980
42.880,-4.30081
42.888,-4.28683
42.896,-4.29605
42.904,-4.32609
42.912,-4.37412
42.920,-4.43692
42.928,-4.51099
42.936,-4.59248
42.944,-4.67744
42.952,-4.76205
42.960,-4.84313
42.968,-4.91853
42.976,-4.98756
42.984,-5.05111
42.992,-5.11149
43.000,-5.17201
43.008,-5.23637
43.016,-5.30804
43.024,-5.38960
43.032,-5.48242
43.040,-5.58644
43.048,-5.70031
43.056,-5.82166
43.064,-5.94744
43.072,-6.07433
43.080,-6.19908
43.088,-6.31879
43.096,-6.43098
43.104,-6.53360
43.112,-6.62495
43.120,-6.70349
43.128,-6.76785
43.136,-6.81690
43.144,-6.85000
43.152,-6.86730
43.160,-6.87004
43.168,-6.86064
43.176,-6.84265
43.184,-6.82036
43.192,-6.79822
43.200,-6.78027
43.208,-6.76942
43.216,-6.76710
43.224,-6.77300
43.232,-6.78512
43.240,-6.80009
43.248,-6.81362
43.256,-6.82112
43.264,-6.81830
43.272,-6.80173
43.280,-6.76922
43.288,-6.72009
43.296,-6.65515
43.304,-6.57657
43.312,-6.48756
43.320,-6.39198
43.328,-6.29395
43.336,-6.19739
43.344,-6.10564
43.352,-6.02113
43.360,-5.94521
43.368,-5.87803
43.376,-5.81864
43.384,-5.76512
43.392,-5.71483
43.400,-5.66474
43.408,-5.61177
43.416,-5.55311
43.424,-5.48651
43.432,-5.41041
43.440,-5.32409
43.448,-5.22759
43.456,-5.12162
43.464,-5.00741
43.472,-4.88650
43.480,-4.76059
43.488,-4.63139
43.496,-4.50057
43.504,-4.36966
43.512,-4.23994
43.520,-4.11223
43.528,-3.98652
43.536,-3.86160
43.544,-3.73441
43.552,-3.59949
43.560,-3.44838
43.568,-3.26906
43.576,-3.04561
43.584,-2.75812
43.592,-2.38304
43.600,-1.89399
43.608,-1.26320
43.616,-0.46348
43.624,0.52940
43.632,1.73406
43.640,3.16094
43.648,4.81004
43.656,6.66924
43.664,8.71350
43.672,10.90493
43.680,13.19399
43.688,15.52154
43.696,17.82179
43.704,20.02595
43.712,22.06605
43.720,23.87892
43.728,25.40976
43.736,26.61511
43.744,27.46515
43.752,27.94485
43.760,28.05433
43.768,27.80808
43.776,27.23342
43.784,26.36814
43.792,25.25771
43.800,23.95210
43.808,22.50266
43.816,20.95913
43.824,19.36715
43.832,17.76626
43.840,16.18870
43.848,14.65882
43.856,13.19326
43.864,11.80161
43.872,10.48749
43.880,9.24977
43.888,8.08394
43.896,6.98333
43.904,5.94025
43.912,4.94696
43.920,3.99630
43.928,3.08226
43.936,2.20024
43.944,1.34725
43.952,0.52200
43.960,-0.27503
43.968,-1.04163
43.976,-1.77383
43.984,-2.46605
43.992,-3.11135
44.000,-3.70176
44.008,-4.22892
44.016,-4.68478
44.024,-5.06252
44.032,-5.35738
44.040,-5.56749
44.048,-5.69443
44.056,-5.74347
44.064,-5.72344
44.072,-5.64628
44.080,-5.52614
44.088,-5.37831
44.096,-5.21801
44.104,-5.05915
44.112,-4.91329
44.120,-4.78893
44.128,-4.69119
44.136,-4.62197
44.144,-4.58035
44.152,-4.56336
44.160,-4.56677
44.168,-4.58596
44.176,-4.61662
44.184,-4.65528
44.192,-4.69961
44.200,-4.74852
44.208,-4.80193
44.216,-4.86058
44.224,-4.92556
44.232,-4.99802
44.240,-5.07888
44.248,-5.16874
44.256,-5.26779
44.264,-5.37581
44.272,-5.49223
44.280,-5.61607
44.288,-5.74600
44.296,-5.88029
44.304,-6.01694
44.312,-6.15365
44.320,-6.28796
44.328,-6.41733
44.336,-6.53925
44.344,-6.65146
44.352,-6.75197
44.360,-6.83934
44.368,-6.91268
44.376,-6.97182
44.384,-7.01729
44.392,-7.05032
44.400,-7.07262
44.408,-7.08622
44.416,-7.09317
44.424,-7.09533
44.432,-7.09416
44.440,-7.09065
44.448,-7.08538
44.456,-7.07866
44.464,-7.07066
44.472,-7.06165
44.480,-7.05209
44.488,-7.04266
44.496,-7.03414
44.504,-7.02731
44.512,-7.02272
44.520,-7.02060
44.528,-7.02072
44.536,-7.02236
44.544,-7.02429
44.552,-7.02488
44.560,-7.02215
44.568,-7.01393
44.576,-6.99796
44.584,-6.97217
44.592,-6.93486
44.600,-6.88494
44.608,-6.82207
44.616,-6.74682
44.624,-6.66061
44.632,-6.56561
44.640,-6.46457
44.648,-6.36053
44.656,-6.25656
44.664,-6.15539
44.672,-6.05915
44.680,-5.96899
44.688,-5.88489
44.696,-5.80551
44.704,-5.72831
44.712,-5.64977
44.720,-5.56586
44.728,-5.47271
44.736,-5.36725
44.744,-5.24783
44.752,-5.11457
44.760,-4.96940
44.768,-4.81569
44.776,-4.65761
44.784,-4.49916
44.792,-4.34311
44.800,-4.18991
44.808,-4.03669
44.816,-3.87649
44.824,-3.69773
44.832,-3.48411
44.840,-3.21493
44.848,-2.86584
44.856,-2.41008
44.864,-1.82009
44.872,-1.06946
44.880,-0.13497
44.888,1.00126
44.896,2.34985
44.904,3.91248
44.912,5.68066
44.920,7.63504
44.928,9.74546
44.936,11.97155
44.944,14.26417
44.952,16.56735
44.960,18.82075
44.968,20.96254
44.976,22.93251
44.984,24.67510
44.992,26.14222
45.000,27.29566
45.008,28.10883
45.016,28.56793
45.024,28.67224
45.032,28.43374
45.040,27.87611
45.048,27.03309
45.056,25.94648
45.064,24.66362
45.072,23.23481
45.080,21.71040
45.088,20.13812
45.096,18.56059
45.104,17.01330
45.112,15.52334
45.120,14.10877
45.128,12.77894
45.136,11.53540
45.144,10.37339
45.152,9.28363
45.160,8.25421
45.168,7.27232
45.176,6.32580
45.184,5.40425
45.192,4.49988
45.200,3.60792
45.208,2.72674
45.216,1.85769
45.224,1.00474
45.232,0.17402
45.240,-0.62670
45.248,-1.38856
45.256,-2.10217
45.264,-2.75821
45.272,-3.34801
45.280,-3.86419
45.288,-4.30127
45.296,-4.65622
45.304,-4.92882
45.312,-5.12180
45.320,-5.24079
45.328,-5.29395
45.336,-5.29146
45.344,-5.24493
45.352,-5.16663
45.360,-5.06873
45.368,-4.96265
45.376,-4.85839
45.384,-4.76415
45.392,-4.68618
45.400,-4.62872
45.408,-4.59426
45.416,-4.58371
45.424,-4.59676
45.432,-4.63205
45.440,-4.68753
45.448,-4.76059
45.456,-4.84842
45.464,-4.94819
45.472,-5.05731
45.480,-5.17352
45.488,-5.29488
45.496,-5.41962
45.504,-5.54595
45.512,-5.67194
45.520,-5.79555
45.528,-5.91474
45.536,-6.02770
45.544,-6.13318
45.552,-6.23066
45.560,-6.32050
45.568,-6.40388
45.576,-6.48270
45.584,-6.55929
45.592,-6.63612
45.600,-6.71539
45.608,-6.79870
45.616,-6.88675
45.624,-6.97909
45.632,-7.07412
45.640,-7.16920
45.648,-7.26093
45.656,-7.34573
45.664,-7.42029
45.672,-7.48209
45.680,-7.52972
45.688,-7.56292
45.696,-7.58250
45.704,-7.59006
45.712,-7.58758
45.720,-7.57710
45.728,-7.56048
45.736,-7.53916
45.744,-7.51421
45.752,-7.48636
45.760,-7.45616
45.768,-7.42407
45.776,-7.39055
45.784,-7.35607
45.792,-7.32094
45.800,-7.28516
45.808,-7.24825
45.816,-7.20916
45.824,-7.16643
45.832,-7.11835
45.840,-7.06337
45.848,-7.00043
45.856,-6.92920
45.864,-6.85024
45.872,-6.76485
45.880,-6.67491
45.888,-6.58251
45.896,-6.48976
45.904,-6.39850
45.912,-6.31024
45.920,-6.22608
45.928,-6.14672
45.936,-6.07244
45.944,-6.00318
45.952,-5.93853
45.960,-5.87777
45.968,-5.81987
45.976,-5.76351
45.984,-5.70706
45.992,-5.64860
46.000,-5.58599
46.008,-5.51707
46.016,-5.43993
46.024,-5.35325
46.032,-5.25662
46.040,-5.15064
46.048,-5.03695
46.056,-4.91790
46.064,-4.79608
46.072,-4.67360
46.080,-4.55128
46.088,-4.42780
46.096,-4.29891
46.104,-4.15687
46.112,-3.99015
46.120,-3.78338
46.128,-3.51758
46.136,-3.17064
46.144,-2.71807
46.152,-2.13410
46.160,-1.39311
46.168,-0.47142
46.176,0.65067
46.184,1.98671
46.192,3.54210
46.200,5.31242
46.208,7.28228
46.216,9.42475
46.224,11.70156
46.232,14.06400
46.240,16.45454
46.248,18.80923
46.256,21.06085
46.264,23.14256
46.272,24.99168
46.280,26.55352
46.288,27.78452
46.296,28.65465
46.304,29.14893
46.312,29.26776
46.320,29.02629
46.328,28.45277
46.336,27.58603
46.344,26.47248
46.352,25.16277
46.360,23.70847
46.368,22.15912
46.376,20.55973
46.384,18.94905
46.392,17.35851
46.400,15.81182
46.408,14.32511
46.416,12.90764
46.424,11.56264
46.432,10.28856
46.440,9.08030
46.448,7.93053
46.456,6.83092
46.464,5.77331
46.472,4.75064
46.480,3.75777
46.488,2.79194
46.496,1.85299
46.504,0.94332
46.512,0.06754
46.520,-0.76790
46.528,-1.55534
46.536,-2.28664
46.544,-2.95385
46.552,-3.54997
46.560,-4.06951
46.568,-4.50894
46.576,-4.86689
46.584,-5.14418
46.592,-5.34374
46.600,-5.47038
46.608,-5.53060
46.616,-5.53233
46.624,-5.48477
46.632,-5.39808
46.640,-5.28318
46.648,-5.15130
46.656,-5.01356
46.664,-4.88042
46.672,-4.76110
46.680,-4.66314
46.688,-4.59190
46.696,-4.55034
46.704,-4.53884
46.712,-4.55536
46.720,-4.59565
46.728,-4.65387
46.736,-4.72333
46.744,-4.79734
46.752,-4.87009
46.760,-4.93734
46.768,-4.99686
46.776,-5.04858
46.784,-5.09438
46.792,-5.13770
46.800,-5.18293
46.808,-5.23472
46.816,-5.29731
46.824,-5.37394
46.832,-5.46641
46.840,-5.57496
46.848,-5.69837
46.856,-5.83426
46.864,-5.97957
46.872,-6.13097
46.880,-6.28538
46.888,-6.44021
46.896,-6.59350
46.904,-6.74396
46.912,-6.89072
46.920,-7.03312
46.928,-7.17035
46.936,-7.30125
46.944,-7.42413
46.952,-7.53683
46.960,-7.63684
46.968,-7.72166
46.976,-7.78909
46.984,-7.83755
46.992,-7.86632
47.000,-7.87563
47.008,-7.86666
47.016,-7.84147
47.024,-7.80276
47.032,-7.75368
47.040,-7.69759
47.048,-7.63780
47.056,-7.57746
47.064,-7.51941
47.072,-7.46602
47.080,-7.41904
47.088,-7.37930
47.096,-7.34649
47.104,-7.31894
47.112,-7.29362
47.120,-7.26637
47.128,-7.23237
47.136,-7.18675
47.144,-7.12538
47.152,-7.04543
47.160,-6.94597
47.168,-6.82809
47.176,-6.69489
47.184,-6.55106
47.192,-6.40228
47.200,-6.25444
47.208,-6.11290
47.216,-5.98180
47.224,-5.86358
47.232,-5.75879
47.240,-5.66621
47.248,-5.58313
47.256,-5.50591
47.264,-5.43061
47.272,-5.35355
47.280,-5.27186
47.288,-5.18378
47.296,-5.08878
47.304,-4.98745
47.312,-4.88126
47.320,-4.77212
47.328,-4.66195
47.336,-4.55200
47.344,-4.44222
47.352,-4.33046
47.360,-4.21162
47.368,-4.07694
47.376,-3.91336
47.384,-3.70321
47.392,-3.42429
47.400,-3.05049
47.408,-2.55288
47.416,-1.90143
47.424,-1.06720
47.432,-0.02497
47.440,1.24400
47.448,2.74924
47.456,4.48874
47.464,6.44734
47.472,8.59612
47.480,10.89276
47.488,13.28312
47.496,15.70374
47.504,18.08516
47.512,20.35580
47.520,22.44609
47.528,24.29245
47.536,25.84099
47.544,27.05044
47.552,27.89429
47.560,28.36176
47.568,28.45772
47.576,28.20148
47.584,27.62469
47.592,26.76848
47.600,25.68030
47.608,24.41052
47.616,23.00936
47.624,21.52419
47.632,19.99742
47.640,18.46516
47.648,16.95643
47.656,15.49301
47.664,14.08977
47.672,12.75524
47.680,11.49249
47.688,10.30007
47.696,9.17305
47.704,8.10410
47.712,7.08456
47.720,6.10553
47.728,5.15881
47.736,4.23782
47.744,3.33829
47.752,2.45865
47.760,1.60025
47.768,0.76709
47.776,-0.03454
47.784,-0.79674
47.792,-1.51078
47.800,-2.16784
47.808,-2.75982
47.816,-3.27993
47.824,-3.72325
47.832,-4.08715
47.840,-4.37145
47.848,-4.57852
47.856,-4.71319
47.864,-4.78245
47.872,-4.79506
47.880,-4.76107
47.888,-4.69118
47.896,-4.59614
47.904,-4.48619
47.912,-4.37055
47.920,-4.25718
47.928,-4.15263
47.936,-4.06217
47.944,-3.98990
47.952,-3.93888
47.960,-3.91123
47.968,-3.90811
47.976,-3.92972
47.984,-3.97530
47.992,-4.04317
48.000,-4.13089
48.008,-4.23543
48.016,-4.35332
48.024,-4.48088
48.032,-4.61428
48.040,-4.74979
48.048,-4.88388
48.056,-5.01342
48.064,-5.13596
48.072,-5.24995
48.080,-5.35493
48.088,-5.45163
48.096,-5.54187
48.104,-5.62832
48.112,-5.71413
48.120,-5.80246
48.128,-5.89607
48.136,-5.99700
48.144,-6.10638
48.152,-6.22429
48.160,-6.34984
48.168,-6.48114
48.176,-6.61545
48.184,-6.74934
48.192,-6.87899
48.200,-7.00049
48.208,-7.11026
48.216,-7.20533
48.224,-7.28366
48.232,-7.34423
48.240,-7.38708
48.248,-7.41323
48.256,-7.42454
48.264,-7.42347
48.272,-7.41287
48.280,-7.39568
48.288,-7.37472
48.296,-7.35249
48.304,-7.33105
48.312,-7.31189
48.320,-7.29593
48.328,-7.28356
48.336,-7.27464
48.344,-7.26862
48.352,-7.26459
48.360,-7.26141
48.368,-7.25779
48.376,-7.25241
48.384,-7.24404
48.392,-7.23167
48.400,-7.21462
48.408,-7.19257
48.416,-7.16569
48.424,-7.13452
48.432,-7.09988
48.440,-7.06271
48.448,-7.02380
48.456,-6.98358
48.464,-6.94195
48.472,-6.89830
48.480,-6.85165
48.488,-6.80100
48.496,-6.74557
48.504,-6.68508
48.512,-6.61984
48.520,-6.55063
48.528,-6.47847
48.536,-6.40428
48.544,-6.32856
48.552,-6.25114
48.560,-6.17112
48.568,-6.08692
48.576,-5.99649
48.584,-5.89759
48.592,-5.78801
48.600,-5.66570
48.608,-5.52862
48.616,-5.37437
48.624,-5.19943
48.632,-4.99837
48.640,-4.76293
48.648,-4.48139
48.656,-4.13823
48.664,-3.71426
48.672,-3.18721
48.680,-2.53286
48.688,-1.72665
48.696,-0.74564
48.704,0.42929
48.712,1.81130
48.720,3.40544
48.728,5.20698
48.736,7.20009
48.744,9.35723
48.752,11.63929
48.760,13.99664
48.768,16.37099
48.776,18.69821
48.784,20.91160
48.792,22.94568
48.800,24.73995
48.808,26.24240
48.816,27.41251
48.824,28.22334
48.832,28.66272
48.840,28.73344
48.848,28.45245
48.856,27.84915
48.864,26.96303
48.872,25.84070
48.880,24.53274
48.888,23.09045
48.896,21.56296
48.904,19.99466
48.912,18.42331
48.920,16.87890
48.928,15.38329
48.936,13.95048
48.944,12.58755
48.952,11.29598
48.960,10.07314
48.968,8.91385
48.976,7.81176
48.984,6.76040
48.992,5.75398
49.000,4.78771
49.008,3.85799
49.016,2.96228
49.024,2.09905
49.032,1.26771
49.040,0.46864
49.048,-0.29665
49.056,-1.02535
49.064,-1.71326
49.072,-2.35480
49.080,-2.94325
49.088,-3.47120
49.096,-3.93123
49.104,-4.31680
49.112,-4.62305
49.120,-4.84762
49.128,-4.99122
49.136,-5.05792
49.144,-5.05519
49.152,-4.99350
49.160,-4.88574
49.168,-4.74635
49.176,-4.59025
49.184,-4.43191
49.192,-4.28433
49.200,-4.15832
49.208,-4.06190
49.216,-4.00006
49.224,-3.97472
49.232,-3.98499
49.240,-4.02767
49.248,-4.09788
49.256,-4.18982
49.264,-4.29751
49.272,-4.41549
49.280,-4.53938
49.288,-4.66617
49.296,-4.79437
49.304,-4.92384
49.312,-5.05548
49.320,-5.19070
49.328,-5.33092
49.336,-5.47705
49.344,-5.62908
49.352,-5.78591
49.360,-5.94532
49.368,-6.10428
49.376,-6.25934
49.384,-6.40712
49.392,-6.54478
49.400,-6.67037
49.408,-6.78310
49.416,-6.88340
49.424,-6.97290
49.432,-7.05417
49.440,-7.13034
49.448,-7.20451
49.456,-7.27926
49.464,-7.35610
49.472,-7.43516
49.480,-7.51508
49.488,-7.59319
49.496,-7.66589
49.504,-7.72928
49.512,-7.77979
49.520,-7.81479
49.528,-7.83297
49.536,-7.83456
49.544,-7.82117
49.552,-7.79545
49.560,-7.76043
49.568,-7.71901
49.576,-7.67334
49.584,-7.62458
49.592,-7.57286
49.600,-7.51751
49.608,-7.45741
49.616,-7.39135
49.624,-7.31840
49.632,-7.23800
49.640,-7.15010
49.648,-7.05513
49.656,-6.95394
49.664,-6.84770
49.672,-6.73780
49.680,-6.62564
49.688,-6.51250
49.696,-6.39932
49.704,-6.28660
49.712,-6.17428
49.720,-6.06179
49.728,-5.94814
49.736,-5.83214
49.744,-5.71256
49.752,-5.58829
49.760,-5.45855
49.768,-5.32294
49.776,-5.18159
49.784,-5.03523
49.792,-4.88523
49.800,-4.73362
49.808,-4.58295
49.816,-4.43609
49.824,-4.29594
49.832,-4.16508
49.840,-4.04543
49.848,-3.93796
49.856,-3.84229
49.864,-3.75644
49.872,-3.67635
49.880,-3.59557
49.888,-3.50482
49.896,-3.39159
49.904,-3.23987
49.912,-3.03004
49.920,-2.73898
49.928,-2.34070
49.936,-1.80746
49.944,-1.11154
49.952,-0.22755
49.960,0.86490
49.968,2.17844
49.976,3.71554
49.984,5.46668
49.992,7.40944
50.000,9.50871
50.008,11.71784
50.016,13.98082
50.024,16.23512
50.032,18.41505
50.040,20.45524
50.048,22.29416
50.056,23.87733
50.064,25.16021
50.072,26.11043
50.080,26.70939
50.088,26.95295
50.096,26.85107
50.104,26.42666
50.112,25.71359
50.120,24.75415
50.128,23.59619
50.136,22.29014
50.144,20.88605
50.152,19.43093
50.160,17.96634
50.168,16.52654
50.176,15.13734
50.184,13.81557
50.192,12.56945
50.200,11.39949
50.208,10.29998
50.216,9.26083
50.224,8.26954
50.232,7.31313
50.240,6.37993
50.248,5.46091
50.256,4.55067
50.264,3.64784
50.272,2.75502
50.280,1.87825
50.288,1.02606
50.296,0.20838
50.304,-0.56471
50.312,-1.28393
50.320,-1.94154
50.328,-2.53169
50.336,-3.05040
50.344,-3.49535
50.352,-3.86568
50.360,-4.16170
50.368,-4.38491
50.376,-4.53806
50.384,-4.62536
50.392,-4.65266
50.400,-4.62748
50.408,-4.55885
50.416,-4.45687
50.424,-4.33209
50.432,-4.19489
50.440,-4.05488
50.448,-3.92041
50.456,-3.79833
50.464,-3.69386
50.472,-3.61061
50.480,-3.55065
50.488,-3.51474
50.496,-3.50258
50.504,-3.51309
50.512,-3.54466
50.520,-3.59538
50.528,-3.66314
50.536,-3.74561
50.544,-3.84019
50.552,-3.94398
50.560,-4.05380
50.568,-4.16636
50.576,-4.27856
50.584,-4.38785
50.592,-4.49252
50.600,-4.59198
50.608,-4.68680
50.616,-4.77859
50.624,-4.86976
50.632,-4.96306
50.640,-5.06110
50.648,-5.16591
50.656,-5.27856
50.664,-5.39895
50.672,-5.52580
50.680,-5.65685
50.688,-5.78922
50.696,-5.91983
50.704,-6.04575
50.712,-6.16454
50.720,-6.27446
50.728,-6.37458
50.736,-6.46484
50.744,-6.54605
50.752,-6.61979
50.760,-6.68830
50.768,-6.75414
50.776,-6.81989
50.784,-6.88769
50.792,-6.95885
50.800,-7.03360
50.808,-7.11095
50.816,-7.18881
50.824,-7.26429
50.832,-7.33411
50.840,-7.39510
50.848,-7.44472
50.856,-7.48142
50.864,-7.50484
50.872,-7.51580
50.880,-7.51608
50.888,-7.50797
50.896,-7.49387
50.904,-7.47581
50.912,-7.45513
50.920,-7.43242
50.928,-7.40757
50.936,-7.37998
50.944,-7.34898
50.952,-7.31409
50.960,-7.27541
50.968,-7.23369
50.976,-7.19035
50.984,-7.14716
50.992,-7.10587
51.000,-7.06775
51.008,-7.03320
51.016,-7.00151
51.024,-6.97089
51.032,-6.93866
51.040,-6.90161
51.048,-6.85647
51.056,-6.80035
51.064,-6.73114
51.072,-6.64769
51.080,-6.55001
51.088,-6.43916
51.096,-6.31714
51.104,-6.18665
51.112,-6.05072
51.120,-5.91225
51.128,-5.77349
51.136,-5.63549
51.144,-5.49743
51.152,-5.35604
51.160,-5.20502
51.168,-5.03456
51.176,-4.83096
51.184,-4.57664
51.192,-4.25031
51.200,-3.82761
51.208,-3.28226
51.216,-2.58748
51.224,-1.71788
51.232,-0.65158
51.240,0.62753
51.248,2.12766
51.256,3.84726
51.264,5.77364
51.272,7.88239
51.280,10.13745
51.288,12.49218
51.296,14.89122
51.304,17.27301
51.312,19.57285
51.320,21.72625
51.328,23.67235
51.336,25.35718
51.344,26.73664
51.352,27.77883
51.360,28.46549
51.368,28.79256
51.376,28.76961
51.384,28.41842
51.392,27.77083
51.400,26.86610
51.408,25.74807
51.416,24.46240
51.424,23.05416
51.432,21.56575
51.440,20.03540
51.448,18.49614
51.456,16.97526
51.464,15.49407
51.472,14.06795
51.480,12.70648
51.488,11.41387
51.496,10.18954
51.504,9.02892
51.512,7.92455
51.520,6.86723
51.528,5.84720
51.536,4.85533
51.544,3.88421
51.552,2.92896
51.560,1.98786
51.568,1.06274
51.576,0.15889
51.584,-0.71526
51.592,-1.54886
51.600,-2.32965
51.608,-3.04507
51.616,-3.68349
51.624,-4.23523
51.632,-4.69341
51.640,-5.05454
51.648,-5.31872
51.656,-5.48970
51.664,-5.57456
51.672,-5.58324
51.680,-5.52788
51.688,-5.42218
51.696,-5.28055
51.704,-5.11734
51.712,-4.94617
51.720,-4.77921
51.728,-4.62674
51.736,-4.49673
51.744,-4.39471
51.752,-4.32373
51.760,-4.28459
51.768,-4.27605
51.776,-4.29535
51.784,-4.33861
51.792,-4.40138
51.800,-4.47905
51.808,-4.56717
51.816,-4.66172
51.824,-4.75922
51.832,-4.85684
51.840,-4.95243
51.848,-5.04459
51.856,-5.13263
51.864,-5.21661
51.872,-5.29722
51.880,-5.37571
51.888,-5.45366
51.896,-5.53280
51.904,-5.61474
51.912,-5.70076
51.920,-5.79163
51.928,-5.88754
51.936,-5.98814
51.944,-6.09266
51.952,-6.20007
51.960,-6.30930
51.968,-6.41934
51.976,-6.52932
51.984,-6.63842
51.992,-6.74586
52.000,-6.85073
52.008,-6.95190
52.016,-7.04789
52.024,-7.13689
52.032,-7.21680
52.040,-7.28538
52.048,-7.34056
52.056,-7.38075
52.064,-7.40509
52.072,-7.41365
52.080,-7.40747
52.088,-7.38843
52.096,-7.35898
52.104,-7.32186
52.112,-7.27971
52.120,-7.23467
52.128,-7.18813
52.136,-7.14045
52.144,-7.09095
52.152,-7.03807
52.160,-6.97969
52.168,-6.91367
52.176,-6.83842
52.184,-6.75330
52.192,-6.65895
52.200,-6.55723
52.208,-6.45096
52.216,-6.34348
52.224,-6.23813
52.232,-6.13773
52.240,-6.04425
52.248,-5.95857
52.256,-5.88052
52.264,-5.80894
52.272,-5.74208
52.280,-5.67784
52.288,-5.61415
52.296,-5.54919
52.304,-5.48151
52.312,-5.40998
52.320,-5.33365
52.328,-5.25150
52.336,-5.16228
52.344,-5.06437
52.352,-4.95589
52.360,-4.83495
52.368,-4.70010
52.376,-4.55072
52.384,-4.38747
52.392,-4.21240
52.400,-4.02880
52.408,-3.84069
52.416,-3.65194
52.424,-3.46523
52.432,-3.28091
52.440,-3.09600
52.448,-2.90348
52.456,-2.69186
52.464,-2.44513
52.472,-2.14311
52.480,-1.76219
52.488,-1.27649
52.496,-0.65935
52.504,0.11485
52.512,1.06857
52.520,2.21900
52.528,3.57591
52.536,5.13986
52.544,6.90067
52.552,8.83662
52.560,10.91437
52.568,13.08975
52.576,15.30938
52.584,17.51318
52.592,19.63742
52.600,21.61829
52.608,23.39559
52.616,24.91624
52.624,26.13735
52.632,27.02848
52.640,27.57307
52.648,27.76884
52.656,27.62725
52.664,27.17201
52.672,26.43695
52.680,25.46325
52.688,24.29637
52.696,22.98295
52.704,21.56787
52.712,20.09185
52.720,18.58984
52.728,17.09019
52.736,15.61467
52.744,14.17904
52.752,12.79396
52.760,11.46597
52.768,10.19836
52.776,8.99187
52.784,7.84516
52.792,6.75530
52.800,5.71815
52.808,4.72878
52.816,3.78199
52.824,2.87273
52.832,1.99656
52.840,1.15003
52.848,0.33097
52.856,-0.46120
52.864,-1.22527
52.872,-1.95822
52.880,-2.65518
52.888,-3.30970
52.896,-3.91415
52.904,-4.46033
52.912,-4.94017
52.920,-5.34663
52.928,-5.67443
52.936,-5.92082
52.944,-6.08604
52.952,-6.17355
52.960,-6.18999
52.968,-6.14474
52.976,-6.04925
52.984,-5.91617
52.992,-5.75847
53.000,-5.58857
53.008,-5.41761
53.016,-5.25499
53.024,-5.10821
53.032,-4.98280
53.040,-4.88259
53.048,-4.80986
53.056,-4.76567
53.064,-4.74996
53.072,-4.76167
53.080,-4.79871
53.088,-4.85801
53.096,-4.93564
53.104,-5.02706
53.112,-5.12753
53.120,-5.23257
53.128,-5.33840
53.136,-5.44239
53.144,-5.54322
53.152,-5.64086
53.160,-5.73635
53.168,-5.83144
53.176,-5.92804
53.184,-6.02783
53.192,-6.13181
53.200,-6.24012
53.208,-6.35197
53.216,-6.46580
53.224,-6.57954
53.232,-6.69095
53.240,-6.79794
53.248,-6.89882
53.256,-6.99242
53.264,-7.07810
53.272,-7.15569
53.280,-7.22534
53.288,-7.28733
53.296,-7.34191
53.304,-7.38920
53.312,-7.42910
53.320,-7.46131
53.328,-7.48542
53.336,-7.50104
53.344,-7.50795
53.352,-7.50617
53.360,-7.49605
53.368,-7.47839
53.376,-7.45446
53.384,-7.42607
53.392,-7.39549
53.400,-7.36525
53.408,-7.33785
53.416,-7.31518
53.424,-7.29807
53.432,-7.28589
53.440,-7.27641
53.448,-7.26600
53.456,-7.25011
53.464,-7.22401
53.472,-7.18352
53.480,-7.12580
53.488,-7.04986
53.496,-6.95668
53.504,-6.84903
53.512,-6.73093
53.520,-6.60682
53.528,-6.48071
53.536,-6.35546
53.544,-6.23232
53.552,-6.11085
53.560,-5.98923
53.568,-5.86492
53.576,-5.73537
53.584,-5.59876
53.592,-5.45453
53.600,-5.30352
53.608,-5.14788
53.616,-4.99062
53.624,-4.83513
53.632,-4.68472
53.640,-4.54230
53.648,-4.41021
53.656,-4.29022
53.664,-4.18354
53.672,-4.09091
53.680,-4.01236
53.688,-3.94689
53.696,-3.89176
53.704,-3.84161
53.712,-3.78742
53.720,-3.71569
53.728,-3.60786
53.736,-3.44031
53.744,-3.18505
53.752,-2.81098
53.760,-2.28582
53.768,-1.57848
53.776,-0.66172
53.784,0.48503
53.792,1.87306
53.800,3.50221
53.808,5.35940
53.816,7.41801
53.824,9.63839
53.832,11.96933
53.840,14.35052
53.848,16.71559
53.856,18.99575
53.864,21.12348
53.872,23.03629
53.880,24.68010
53.888,26.01203
53.896,27.00237
53.904,27.63569
53.912,27.91091
53.920,27.84056
53.928,27.44921
53.936,26.77140
53.944,25.84901
53.952,24.72850
53.960,23.45799
53.968,22.08448
53.976,20.65138
53.984,19.19653
53.992,17.75087
54.000,16.33786
54.008,14.97341
54.016,13.66653
54.024,12.42016
54.032,11.23232
54.040,10.09731
54.048,9.00708
54.056,7.95260
54.064,6.92523
54.072,5.91801
54.080,4.92658
54.088,3.94974
54.096,2.98949
54.104,2.05069
54.112,1.14041
54.120,0.26707
54.128,-0.56036
54.136,-1.33319
54.144,-2.04357
54.152,-2.68492
54.160,-3.25222
54.168,-3.74221
54.176,-4.15351
54.184,-4.48665
54.192,-4.74406
54.200,-4.92982
54.208,-5.04944
54.216,-5.10948
54.224,-5.11717
54.232,-5.08019
54.240,-5.00642
54.248,-4.90386
54.256,-4.78054
54.264,-4.64442
54.272,-4.50335
54.280,-4.36481
54.288,-4.23572
54.296,-4.12214
54.304,-4.02897
54.312,-3.95979
54.320,-3.91670
54.328,-3.90039
54.336,-3.91024
54.344,-3.94453
54.352,-4.00070
54.360,-4.07555
54.368,-4.16551
54.376,-4.26687
54.384,-4.37603
54.392,-4.48974
54.400,-4.60531
54.408,-4.72077
54.416,-4.83495
54.424,-4.94741
54.432,-5.05822
54.440,-5.16773
54.448,-5.27626
54.456,-5.38387
54.464,-5.49025
54.472,-5.59465
54.480,-5.69595
54.488,-5.79284
54.496,-5.88399
54.504,-5.96830
54.512,-6.04507
54.520,-6.11425
54.528,-6.17652
54.536,-6.23331
54.544,-6.28672
54.552,-6.33921
54.560,-6.39321
54.568,-6.45074
54.576,-6.51291
54.584,-6.57967
54.592,-6.64967
54.600,-6.72035
54.608,-6.78828
54.616,-6.84971
54.624,-6.90119
54.632,-6.94016
54.640,-6.96549
54.648,-6.97768
54.656,-6.97884
54.664,-6.97233
54.672,-6.96224
54.680,-6.95268
54.688,-6.94716
54.696,-6.94803
54.704,-6.95611
54.712,-6.97066
54.720,-6.98959
54.728,-7.00987
54.736,-7.02817
54.744,-7.04138
54.752,-7.04712
54.760,-7.04403
54.768,-7.03189
54.776,-7.01158
54.784,-6.98483
54.792,-6.95398
54.800,-6.92160
54.808,-6.89018
54.816,-6.86180
54.824,-6.83785
54.832,-6.81893
54.840,-6.80462
54.848,-6.79360
54.856,-6.78364
54.864,-6.77187
54.872,-6.75499
54.880,-6.72963
54.888,-6.69274
54.896,-6.64187
54.904,-6.57546
54.912,-6.49285
54.920,-6.39415
54.928,-6.27976
54.936,-6.14970
54.944,-6.00270
54.952,-5.83523
54.960,-5.64059
54.968,-5.40827
54.976,-5.12359
54.984,-4.76787
54.992,-4.31904
55.000,-3.75263
55.008,-3.04324
55.016,-2.16624
55.024,-1.09993
55.032,0.17227
55.040,1.65941
55.048,3.36086
55.056,5.26459
55.064,7.34618
55.072,9.56886
55.080,11.88464
55.088,14.23656
55.096,16.56181
55.104,18.79550
55.112,20.87445
55.120,22.74084
55.128,24.34524
55.136,25.64878
55.144,26.62462
55.152,27.25843
55.160,27.54826
55.168,27.50373
55.176,27.14490
55.184,26.50072
55.192,25.60721
55.200,24.50549
55.208,23.23961
55.216,21.85430
55.224,20.39280
55.232,18.89480
55.240,17.39481
55.248,15.92091
55.256,14.49413
55.264,13.12841
55.272,11.83117
55.280,10.60419
55.288,9.44486
55.296,8.34747
55.304,7.30448
55.312,6.30756
55.320,5.34854
55.328,4.42004
55.336,3.51605
55.344,2.63237
55.352,1.76692
55.360,0.91999
55.368,0.09430
55.376,-0.70508
55.384,-1.47094
55.392,-2.19450
55.400,-2.86600
55.408,-3.47559
55.416,-4.01417
55.424,-4.47421
55.432,-4.85052
55.440,-5.14079
55.448,-5.34580
55.456,-5.46939
55.464,-5.51814
55.472,-5.50074
55.480,-5.42747
55.488,-5.30956
55.496,-5.15880
55.504,-4.98715
55.512,-4.80643
55.520,-4.62801
55.528,-4.46238
55.536,-4.31869
55.544,-4.20429
55.552,-4.12427
55.560,-4.08126
55.568,-4.07533
55.576,-4.10413
55.584,-4.16333
55.592,-4.24715
55.600,-4.34911
55.608,-4.46273
55.616,-4.58225
55.624,-4.70311
55.632,-4.82227
55.640,-4.93824
55.648,-5.05097
55.656,-5.16146
55.664,-5.27138
55.672,-5.38260
55.680,-5.49684
55.688,-5.61537
55.696,-5.73885
55.704,-5.86732
55.712,-6.00021
55.720,-6.13653
55.728,-6.27496
55.736,-6.41398
55.744,-6.55197
55.752,-6.68720
55.760,-6.81790
55.768,-6.94219
55.776,-7.05815
55.784,-7.16385
55.792,-7.25742
55.800,-7.33712
55.808,-7.40147
55.816,-7.44923
55.824,-7.47952
55.832,-7.49178
55.840,-7.48583
55.848,-7.46190
55.856,-7.42068
55.864,-7.36333
55.872,-7.29152
55.880,-7.20735
55.888,-7.11340
55.896,-7.01264
55.904,-6.90837
55.912,-6.80403
55.920,-6.70306
55.928,-6.60860
55.936,-6.52319
55.944,-6.44852
55.952,-6.38520
55.960,-6.33259
55.968,-6.28882
55.976,-6.25091
55.984,-6.21503
55.992,-6.17693
56.000,-6.13230
56.008,-6.07731
56.016,-6.00896
56.024,-5.92543
56.032,-5.82628
56.040,-5.71249
56.048,-5.58634
56.056,-5.45113
56.064,-5.31087
56.072,-5.16980
56.080,-5.03197
56.088,-4.90080
56.096,-4.77872
56.104,-4.66691
56.112,-4.56519
56.120,-4.47215
56.128,-4.38537
56.136,-4.30198
56.144,-4.21918
56.152,-4.13472
56.160,-4.04732
56.168,-3.95678
56.176,-3.86384
56.184,-3.76976
56.192,-3.67568
56.200,-3.58167
56.208,-3.48571
56.216,-3.38266
56.224,-3.26343
56.232,-3.11439
56.240,-2.91731
56.248,-2.64966
56.256,-2.28558
56.264,-1.79713
56.272,-1.15611
56.280,-0.33608
56.288,0.68534
56.296,1.92417
56.304,3.38791
56.312,5.07358
56.320,6.96630
56.328,9.03851
56.336,11.24998
56.344,13.54874
56.352,15.87299
56.360,18.15392
56.368,20.31958
56.376,22.29922
56.384,24.02798
56.392,25.45115
56.400,26.52770
56.408,27.23256
56.416,27.55754
56.424,27.51084
56.432,27.11547
56.440,26.40667
56.448,25.42890
56.456,24.23246
56.464,22.87018
56.472,21.39429
56.480,19.85371
56.488,18.29181
56.496,16.74477
56.504,15.24064
56.512,13.79900
56.520,12.43127
56.528,11.14158
56.536,9.92810
56.544,8.78458
56.552,7.70208
56.560,6.67057
56.568,5.68037
56.576,4.72321
56.584,3.79297
56.592,2.88601
56.600,2.00133
56.608,1.14039
56.616,0.30683
56.624,-0.49391
56.632,-1.25511
56.640,-1.96929
56.648,-2.62884
56.656,-3.22655
56.664,-3.75621
56.672,-4.21304
56.680,-4.59399
56.688,-4.89795
56.696,-5.12571
56.704,-5.27988
56.712,-5.36475
56.720,-5.38615
56.728,-5.35128
56.736,-5.26858
56.744,-5.14750
56.752,-4.99824
56.760,-4.83135
56.768,-4.65739
56.776,-4.48644
56.784,-4.32768
56.792,-4.18904
56.800,-4.07694
56.808,-3.99605
56.816,-3.94927
56.824,-3.93766
56.832,-3.96055
56.840,-4.01566
56.848,-4.09926
56.856,-4.20645
56.864,-4.33142
56.872,-4.46793
56.880,-4.60964
56.888,-4.75069
56.896,-4.88601
56.904,-5.01177
56.912,-5.12559
56.920,-5.22672
56.928,-5.31602
56.936,-5.39588
56.944,-5.46987
56.952,-5.54230
56.960,-5.61767
56.968,-5.69998
56.976,-5.79213
56.984,-5.89551
56.992,-6.00979
57.000,-6.13288
57.008,-6.26126
57.016,-6.39039
57.024,-6.51524
57.032,-6.63092
57.040,-6.73313
57.048,-6.81863
57.056,-6.88551
57.064,-6.93325
57.072,-6.96275
57.080,-6.97607
57.088,-6.97618
57.096,-6.96649
57.104,-6.95044
57.112,-6.93113
57.120,-6.91098
57.128,-6.89162
57.136,-6.87378
57.144,-6.85740
57.152,-6.84176
57.160,-6.82565
57.168,-6.80750
57.176,-6.78560
57.184,-6.75825
57.192,-6.72398
57.200,-6.68181
57.208,-6.63146
57.216,-6.57358
57.224,-6.50976
57.232,-6.44250
57.240,-6.37486
57.248,-6.31006
57.256,-6.25091
57.264,-6.19928
57.272,-6.15569
57.280,-6.11930
57.288,-6.08803
57.296,-6.05904
57.304,-6.02924
57.312,-5.99584
57.320,-5.95672
57.328,-5.91066
57.336,-5.85738
57.344,-5.79742
57.352,-5.73188
57.360,-5.66212
57.368,-5.58940
57.376,-5.51469
57.384,-5.43847
57.392,-5.36071
57.400,-5.28102
57.408,-5.19869
57.416,-5.11292
57.424,-5.02298
57.432,-4.92829
57.440,-4.82848
57.448,-4.72331
57.456,-4.61231
57.464,-4.49430
57.472,-4.36670
57.480,-4.22475
57.488,-4.06076
57.496,-3.86340
57.504,-3.61730
57.512,-3.30292
57.520,-2.89697
57.528,-2.37342
57.536,-1.70496
57.544,-0.86512
57.552,0.16939
57.560,1.41608
57.568,2.88416
57.576,4.57247
57.584,6.46800
57.592,8.54532
57.600,10.76697
57.608,13.08477
57.616,15.44191
57.624,17.77568
57.632,20.02046
57.640,22.11097
57.648,23.98545
57.656,25.58867
57.664,26.87473
57.672,27.80943
57.680,28.37213
57.688,28.55684
57.696,28.37237
57.704,27.84166
57.712,27.00015
57.720,25.89331
57.728,24.57364
57.736,23.09711
57.744,21.51963
57.752,19.89361
57.760,18.26509
57.768,16.67166
57.776,15.14124
57.784,13.69185
57.792,12.33215
57.800,11.06275
57.808,9.87786
57.816,8.76721
57.824,7.71789
57.832,6.71611
57.840,5.74871
57.848,4.80439
57.856,3.87468
57.864,2.95449
57.872,2.04240
57.880,1.14057
57.888,0.25434
57.896,-0.60840
57.904,-1.43796
57.912,-2.22366
57.920,-2.95465
57.928,-3.62071
57.936,-4.21295
57.944,-4.72437
57.952,-5.15034
57.960,-5.48889
57.968,-5.74085
57.976,-5.90987
57.984,-6.00229
57.992,-6.02692
58.000,-5.99460
58.008,-5.91761
58.016,-5.80887
58.024,-5.68113
58.032,-5.54611
58.040,-5.41381
58.048,-5.29203
58.056,-5.18613
58.064,-5.09910
58.072,-5.03182
58.080,-4.98357
58.088,-4.95250
58.096,-4.93632
58.104,-4.93275
58.112,-4.93998
58.120,-4.95686
58.128,-4.98302
58.136,-5.01874
58.144,-5.06477
58.152,-5.12208
58.160,-5.19160
58.168,-5.27404
58.176,-5.36973
58.184,-5.47846
58.192,-5.59943
58.200,-5.73121
58.208,-5.87174
58.216,-6.01842
58.224,-6.16829
58.232,-6.31827
58.240,-6.46536
58.248,-6.60692
58.256,-6.74071
58.264,-6.86489
58.272,-6.97796
58.280,-7.07873
58.288,-7.16637
58.296,-7.24055
58.304,-7.30160
58.312,-7.35052
58.320,-7.38892
58.328,-7.41886
58.336,-7.44254
58.344,-7.46197
58.352,-7.47875
58.360,-7.49379
58.368,-7.50732
58.376,-7.51887
58.384,-7.52748
58.392,-7.53183
58.400,-7.53049
58.408,-7.52212
58.416,-7.50563
58.424,-7.48040
58.432,-7.44636
58.440,-7.40400
58.448,-7.35430
58.456,-7.29849
58.464,-7.23777
58.472,-7.17298
58.480,-7.10430
58.488,-7.03104
58.496,-6.95174
58.504,-6.86442
58.512,-6.76709
58.520,-6.65834
58.528,-6.53792
58.536,-6.40711
58.544,-6.26881
58.552,-6.12737
58.560,-5.98803
58.568,-5.85628
58.576,-5.73698
58.584,-5.63366
58.592,-5.54784
58.600,-5.47877
58.608,-5.42348
58.616,-5.37710
58.624,-5.33354
58.632,-5.28622
58.640,-5.22894
58.648,-5.15661
58.656,-5.06586
58.664,-4.95536
58.672,-4.82590
58.680,-4.68007
58.688,-4.52170
58.696,-4.35508
58.704,-4.18403
58.712,-4.01086
58.720,-3.83538
58.728,-3.65385
58.736,-3.45810
58.744,-3.23485
58.752,-2.96542
58.760,-2.62602
58.768,-2.18875
58.776,-1.62327
58.784,-0.89918
58.792,0.01125
58.800,1.13012
58.808,2.47123
58.816,4.03786
58.824,5.82130
58.832,7.80027
58.840,9.94111
58.848,12.19895
58.856,14.51951
58.864,16.84168
58.872,19.10057
58.880,21.23075
58.888,23.16972
58.896,24.86108
58.904,26.25746
58.912,27.32295
58.920,28.03475
58.928,28.38400
58.936,28.37580
58.944,28.02828
58.952,27.37097
58.960,26.44241
58.968,25.28736
58.976,23.95378
58.984,22.48992
58.992,20.94168
59.000,19.35058
59.008,17.75224
59.016,16.17559
59.024,14.64256
59.032,13.16834
59.040,11.76199
59.048,10.42735
59.056,9.16405
59.064,7.96860
59.072,6.83549
59.080,5.75814
59.088,4.72972
59.096,3.74388
59.104,2.79529
59.112,1.88004
59.120,0.99598
59.128,0.14295
59.136,-0.67714
59.144,-1.46029
59.152,-2.20056
59.160,-2.89033
59.168,-3.52085
59.176,-4.08295
59.184,-4.56789
59.192,-4.96844
59.200,-5.27981
59.208,-5.50054
59.216,-5.63292
59.224,-5.68315
59.232,-5.66101
59.240,-5.57921
59.248,-5.45243
59.256,-5.29630
59.264,-5.12627
59.272,-4.95658
59.280,-4.79927
59.288,-4.66350
59.296,-4.55498
59.304,-4.47581
59.312,-4.42467
59.320,-4.39742
59.328,-4.38810
59.336,-4.39014
59.344,-4.39762
59.352,-4.40634
59.360,-4.41449
59.368,-4.42279
59.376,-4.43417
59.384,-4.45300
59.392,-4.48411
59.400,-4.53180
59.408,-4.59901
59.416,-4.68678
59.424,-4.79415
59.432,-4.91842
59.440,-5.05571
59.448,-5.20164
59.456,-5.35197
59.464,-5.50308
59.472,-5.65229
59.480,-5.79790
59.488,-5.93909
59.496,-6.07567
59.504,-6.20781
59.512,-6.33569
59.520,-6.45926
59.528,-6.57817
59.536,-6.69174
59.544,-6.79910
59.552,-6.89930
59.560,-6.99144
59.568,-7.07476
59.576,-7.14866
59.584,-7.21281
59.592,-7.26719
59.600,-7.31214
59.608,-7.34843
59.616,-7.37719
59.624,-7.39975
59.632,-7.41744
59.640,-7.43135
59.648,-7.44213
59.656,-7.44979
59.664,-7.45371
59.672,-7.45261
59.680,-7.44478
59.688,-7.42830
59.696,-7.40129
59.704,-7.36224
59.712,-7.31021
59.720,-7.24491
59.728,-7.16681
59.736,-7.07699
59.744,-6.97712
59.752,-6.86930
59.760,-6.75601
59.768,-6.63992
59.776,-6.52386
59.784,-6.41066
59.792,-6.30295
59.800,-6.20299
59.808,-6.11238
59.816,-6.03183
59.824,-5.96102
59.832,-5.89848
59.840,-5.84172
59.848,-5.78732
59.856,-5.73129
59.864,-5.66938
59.872,-5.59748
59.880,-5.51208
59.888,-5.41072
59.896,-5.29233
59.904,-5.15754
59.912,-5.00876
59.920,-4.85000
59.928,-4.68650
59.936,-4.52410
59.944,-4.36865
59.952,-4.22532
59.960,-4.09802
59.968,-3.98880
59.976,-3.89733
59.984,-3.82032
59.992,-3.75098
