# VitalDB case 655, fingertip PPG, 125 Hz, 60 s
# cuff: 127/72  (arterial-line BP in the first 12 s, used for calibration)
# reference: 127/72  (true arterial-line BP over the remaining 48 s, for comparison only)
time_s,ppg
0.000,-3.65780
0.008,-3.88584
0.016,-4.11601
0.024,-4.34688
0.032,-4.57605
0.040,-4.80076
0.048,-5.01856
0.056,-5.22791
0.064,-5.42852
0.072,-5.62140
0.080,-5.80858
0.088,-5.99263
0.096,-6.17600
0.104,-6.36039
0.112,-6.54631
0.120,-6.73285
0.128,-6.91777
0.136,-7.09792
0.144,-7.26985
0.152,-7.43056
0.160,-7.57812
0.168,-7.71214
0.176,-7.83387
0.184,-7.94601
0.192,-8.05233
0.200,-8.15704
0.208,-8.26412
0.216,-8.37668
0.224,-8.49644
0.232,-8.62348
0.240,-8.75630
0.248,-8.89215
0.256,-9.02751
0.264,-9.15872
0.272,-9.28249
0.280,-9.39625
0.288,-9.49832
0.296,-9.58789
0.304,-9.66489
0.312,-9.72977
0.320,-9.78327
0.328,-9.82627
0.336,-9.85961
0.344,-9.88410
0.352,-9.90057
0.360,-9.90998
0.368,-9.91358
0.376,-9.91298
0.384,-9.91014
0.392,-9.90723
0.400,-9.90636
0.408,-9.90926
0.416,-9.91691
0.424,-9.92934
0.432,-9.94554
0.440,-9.96368
0.448,-9.98146
0.456,-9.99668
0.464,-10.00766
0.472,-10.01358
0.480,-10.01446
0.488,-10.01094
0.496,-10.00376
0.504,-9.99315
0.512,-9.97807
0.520,-9.95554
0.528,-9.92007
0.536,-9.86330
0.544,-9.77381
0.552,-9.63723
0.560,-9.43653
0.568,-9.15265
0.576,-8.76542
0.584,-8.25471
0.592,-7.60195
0.600,-6.79159
0.608,-5.81271
0.616,-4.66026
0.624,-3.33601
0.632,-1.84901
0.640,-0.21555
0.648,1.54136
0.656,3.39283
0.664,5.30541
0.672,7.24244
0.680,9.16577
0.688,11.03748
0.696,12.82162
0.704,14.48597
0.712,16.00353
0.720,17.35378
0.728,18.52356
0.736,19.50743
0.744,20.30745
0.752,20.93234
0.760,21.39613
0.768,21.71632
0.776,21.91181
0.784,22.00087
0.792,21.99940
0.800,21.91959
0.808,21.76927
0.816,21.55187
0.824,21.26702
0.832,20.91164
0.840,20.48131
0.848,19.97172
0.856,19.37998
0.864,18.70573
0.872,17.95179
0.880,17.12459
0.888,16.23412
0.896,15.29369
0.904,14.31934
0.912,13.32902
0.920,12.34152
0.928,11.37519
0.936,10.44668
0.944,9.56972
0.952,8.75408
0.960,8.00504
0.968,7.32324
0.976,6.70501
0.984,6.14314
0.992,5.62795
1.000,5.14852
1.008,4.69392
1.016,4.25429
1.024,3.82169
1.032,3.39057
1.040,2.95787
1.048,2.52281
1.056,2.08642
1.064,1.65092
1.072,1.21918
1.080,0.79420
1.088,0.37876
1.096,-0.02483
1.104,-0.41487
1.112,-0.79026
1.120,-1.15056
1.128,-1.49581
1.136,-1.82650
1.144,-2.14337
1.152,-2.44725
1.160,-2.73890
1.168,-3.01891
1.176,-3.28769
1.184,-3.54555
1.192,-3.79275
1.200,-4.02975
1.208,-4.25732
1.216,-4.47669
1.224,-4.68954
1.232,-4.89794
1.240,-5.10406
1.248,-5.30985
1.256,-5.51667
1.264,-5.72495
1.272,-5.93398
1.280,-6.14194
1.288,-6.34617
1.296,-6.54358
1.304,-6.73126
1.312,-6.90702
1.320,-7.06982
1.328,-7.22000
1.336,-7.35923
1.344,-7.49018
1.352,-7.61609
1.360,-7.74015
1.368,-7.86505
1.376,-7.99257
1.384,-8.12351
1.392,-8.25773
1.400,-8.39450
1.408,-8.53271
1.416,-8.67121
1.424,-8.80889
1.432,-8.94475
1.440,-9.07779
1.448,-9.20694
1.456,-9.33091
1.464,-9.44820
1.472,-9.55710
1.480,-9.65581
1.488,-9.74261
1.496,-9.81603
1.504,-9.87506
1.512,-9.91934
1.520,-9.94922
1.528,-9.96583
1.536,-9.97101
1.544,-9.96722
1.552,-9.95745
1.560,-9.94499
1.568,-9.93322
1.576,-9.92538
1.584,-9.92434
1.592,-9.93230
1.600,-9.95063
1.608,-9.97976
1.616,-10.01915
1.624,-10.06743
1.632,-10.12262
1.640,-10.18234
1.648,-10.24415
1.656,-10.30572
1.664,-10.36504
1.672,-10.42058
1.680,-10.47119
1.688,-10.51596
1.696,-10.55377
1.704,-10.58275
1.712,-10.59968
1.720,-10.59940
1.728,-10.57444
1.736,-10.51481
1.744,-10.40798
1.752,-10.23915
1.760,-9.99170
1.768,-9.64783
1.776,-9.18944
1.784,-8.59913
1.792,-7.86131
1.800,-6.96336
1.808,-5.89680
1.816,-4.65827
1.824,-3.25037
1.832,-1.68221
1.840,0.03031
1.848,1.86463
1.856,3.79201
1.864,5.77845
1.872,7.78598
1.880,9.77438
1.888,11.70320
1.896,13.53385
1.904,15.23179
1.912,16.76835
1.920,18.12219
1.928,19.28003
1.936,20.23692
1.944,20.99575
1.952,21.56631
1.960,21.96393
1.968,22.20771
1.976,22.31865
1.984,22.31780
1.992,22.22448
2.000,22.05492
2.008,21.82131
2.016,21.53136
2.024,21.18850
2.032,20.79248
2.040,20.34045
2.048,19.82816
2.056,19.25117
2.064,18.60608
2.072,17.89158
2.080,17.10923
2.088,16.26409
2.096,15.36490
2.104,14.42397
2.112,13.45662
2.120,12.48026
2.128,11.51318
2.136,10.57318
2.144,9.67615
2.152,8.83487
2.160,8.05815
2.168,7.35045
2.176,6.71186
2.184,6.13855
2.192,5.62352
2.200,5.15745
2.208,4.72962
2.216,4.32878
2.224,3.94404
2.232,3.56556
2.240,3.18531
2.248,2.79753
2.256,2.39904
2.264,1.98923
2.272,1.56985
2.280,1.14443
2.288,0.71767
2.296,0.29464
2.304,-0.11987
2.312,-0.52189
2.320,-0.90857
2.328,-1.27816
2.336,-1.62998
2.344,-1.96417
2.352,-2.28154
2.360,-2.58338
2.368,-2.87140
2.376,-3.14756
2.384,-3.41403
2.392,-3.67298
2.400,-3.92638
2.408,-4.17579
2.416,-4.42213
2.424,-4.66563
2.432,-4.90575
2.440,-5.14139
2.448,-5.37111
2.456,-5.59346
2.464,-5.80732
2.472,-6.01212
2.480,-6.20800
2.488,-6.39570
2.496,-6.57635
2.504,-6.75122
2.512,-6.92129
2.520,-7.08702
2.528,-7.24816
2.536,-7.40377
2.544,-7.55237
2.552,-7.69224
2.560,-7.82178
2.568,-7.93983
2.576,-8.04597
2.584,-8.14075
2.592,-8.22576
2.600,-8.30356
2.608,-8.37756
2.616,-8.45172
2.624,-8.53013
2.632,-8.61655
2.640,-8.71392
2.648,-8.82397
2.656,-8.94686
2.664,-9.08116
2.672,-9.22403
2.680,-9.37155
2.688,-9.51933
2.696,-9.66309
2.704,-9.79916
2.712,-9.92484
2.720,-10.03852
2.728,-10.13970
2.736,-10.22876
2.744,-10.30677
2.752,-10.37528
2.760,-10.43616
2.768,-10.49144
2.776,-10.54319
2.784,-10.59330
2.792,-10.64325
2.800,-10.69387
2.808,-10.74510
2.816,-10.79602
2.824,-10.84489
2.832,-10.88947
2.840,-10.92738
2.848,-10.95642
2.856,-10.97497
2.864,-10.98208
2.872,-10.97761
2.880,-10.96210
2.888,-10.93653
2.896,-10.90180
2.904,-10.85820
2.912,-10.80466
2.920,-10.73806
2.928,-10.65269
2.936,-10.53981
2.944,-10.38747
2.952,-10.18068
2.960,-9.90174
2.968,-9.53109
2.976,-9.04832
2.984,-8.43359
2.992,-7.66908
3.000,-6.74062
3.008,-5.63908
3.016,-4.36158
3.024,-2.91235
3.032,-1.30305
3.040,0.44730
3.048,2.31299
3.056,4.26262
3.064,6.26065
3.072,8.26904
3.080,10.24913
3.088,12.16341
3.096,13.97729
3.104,15.66056
3.112,17.18862
3.120,18.54332
3.128,19.71340
3.136,20.69452
3.144,21.48875
3.152,22.10379
3.160,22.55173
3.168,22.84769
3.176,23.00832
3.184,23.05045
3.192,22.98981
3.200,22.84002
3.208,22.61178
3.216,22.31249
3.224,21.94614
3.232,21.51359
3.240,21.01324
3.248,20.44195
3.256,19.79625
3.264,19.07360
3.272,18.27365
3.280,17.39922
3.288,16.45709
3.296,15.45827
3.304,14.41767
3.312,13.35338
3.320,12.28544
3.328,11.23426
3.336,10.21910
3.344,9.25653
3.352,8.35924
3.360,7.53525
3.368,6.78767
3.376,6.11494
3.384,5.51147
3.392,4.96862
3.400,4.47591
3.408,4.02221
3.416,3.59688
3.424,3.19073
3.432,2.79661
3.440,2.40965
3.448,2.02718
3.456,1.64827
3.464,1.27316
3.472,0.90270
3.480,0.53781
3.488,0.17929
3.496,-0.17231
3.504,-0.51657
3.512,-0.85307
3.520,-1.18133
3.528,-1.50070
3.536,-1.81050
3.544,-2.11009
3.552,-2.39895
3.560,-2.67689
3.568,-2.94409
3.576,-3.20120
3.584,-3.44936
3.592,-3.69013
3.600,-3.92535
3.608,-4.15698
3.616,-4.38681
3.624,-4.61622
3.632,-4.84590
3.640,-5.07573
3.648,-5.30473
3.656,-5.53127
3.664,-5.75339
3.672,-5.96914
3.680,-6.17709
3.688,-6.37654
3.696,-6.56776
3.704,-6.75195
3.712,-6.93107
3.720,-7.10751
3.728,-7.28378
3.736,-7.46204
3.744,-7.64375
3.752,-7.82932
3.760,-8.01796
3.768,-8.20761
3.776,-8.39513
3.784,-8.57662
3.792,-8.74784
3.800,-8.90477
3.808,-9.04406
3.816,-9.16347
3.824,-9.26208
3.832,-9.34039
3.840,-9.40019
3.848,-9.44434
3.856,-9.47644
3.864,-9.50047
3.872,-9.52037
3.880,-9.53974
3.888,-9.56143
3.896,-9.58743
3.904,-9.61870
3.912,-9.65527
3.920,-9.69648
3.928,-9.74128
3.936,-9.78855
3.944,-9.83737
3.952,-9.88705
3.960,-9.93710
3.968,-9.98703
3.976,-10.03614
3.984,-10.08349
3.992,-10.12794
4.000,-10.16839
4.008,-10.20405
4.016,-10.23473
4.024,-10.26101
4.032,-10.28424
4.040,-10.30632
4.048,-10.32932
4.056,-10.35504
4.064,-10.38457
4.072,-10.41800
4.080,-10.45430
4.088,-10.49138
4.096,-10.52621
4.104,-10.55492
4.112,-10.57264
4.120,-10.57324
4.128,-10.54882
4.136,-10.48917
4.144,-10.38133
4.152,-10.20947
4.160,-9.95507
4.168,-9.59762
4.176,-9.11577
4.184,-8.48878
4.192,-7.69827
4.200,-6.72993
4.208,-5.57529
4.216,-4.23308
4.224,-2.71022
4.232,-1.02217
4.240,0.80735
4.248,2.74723
4.256,4.76047
4.264,6.80602
4.272,8.84100
4.280,10.82297
4.288,12.71227
4.296,14.47407
4.304,16.08010
4.312,17.50985
4.320,18.75105
4.328,19.79965
4.336,20.65912
4.344,21.33921
4.352,21.85441
4.360,22.22208
4.368,22.46059
4.376,22.58760
4.384,22.61877
4.392,22.56673
4.400,22.44068
4.408,22.24621
4.416,21.98558
4.424,21.65818
4.432,21.26128
4.440,20.79091
4.448,20.24300
4.456,19.61447
4.464,18.90438
4.472,18.11483
4.480,17.25157
4.488,16.32418
4.496,15.34575
4.504,14.33214
4.512,13.30095
4.520,12.27033
4.528,11.25772
4.536,10.27879
4.544,9.34658
4.552,8.47084
4.560,7.65780
4.568,6.91013
4.576,6.22725
4.584,5.60582
4.592,5.04049
4.600,4.52462
4.608,4.05106
4.616,3.61277
4.624,3.20325
4.632,2.81677
4.640,2.44842
4.648,2.09395
4.656,1.74953
4.664,1.41155
4.672,1.07641
4.680,0.74053
4.688,0.40053
4.696,0.05349
4.704,-0.30268
4.712,-0.66890
4.720,-1.04471
4.728,-1.42818
4.736,-1.81602
4.744,-2.20387
4.752,-2.58663
4.760,-2.95900
4.768,-3.31594
4.776,-3.65322
4.784,-3.96779
4.792,-4.25791
4.800,-4.52326
4.808,-4.76482
4.816,-4.98473
4.824,-5.18617
4.832,-5.37318
4.840,-5.55040
4.848,-5.72281
4.856,-5.89529
4.864,-6.07225
4.872,-6.25724
4.880,-6.45263
4.888,-6.65938
4.896,-6.87691
4.904,-7.10311
4.912,-7.33448
4.920,-7.56643
4.928,-7.79369
4.936,-8.01087
4.944,-8.21311
4.952,-8.39666
4.960,-8.55940
4.968,-8.70108
4.976,-8.82332
4.984,-8.92928
4.992,-9.02318
5.000,-9.10959
5.008,-9.19282
5.016,-9.27636
5.024,-9.36251
5.032,-9.45214
5.040,-9.54477
5.048,-9.63886
5.056,-9.73214
5.064,-9.82218
5.072,-9.90680
5.080,-9.98436
5.088,-10.05388
5.096,-10.11495
5.104,-10.16750
5.112,-10.21154
5.120,-10.24702
5.128,-10.27381
5.136,-10.29182
5.144,-10.30120
5.152,-10.30254
5.160,-10.29703
5.168,-10.28648
5.176,-10.27328
5.184,-10.26014
5.192,-10.24984
5.200,-10.24486
5.208,-10.24705
5.216,-10.25728
5.224,-10.27521
5.232,-10.29921
5.240,-10.32644
5.248,-10.35314
5.256,-10.37521
5.264,-10.38879
5.272,-10.39095
5.280,-10.38016
5.288,-10.35642
5.296,-10.32098
5.304,-10.27557
5.312,-10.22126
5.320,-10.15699
5.328,-10.07820
5.336,-9.97571
5.344,-9.83508
5.352,-9.63682
5.360,-9.35719
5.368,-8.96980
5.376,-8.44769
5.384,-7.76564
5.392,-6.90244
5.400,-5.84309
5.408,-4.58044
5.416,-3.11648
5.424,-1.46287
5.432,0.35916
5.440,2.31955
5.448,4.38086
5.456,6.50013
5.464,8.63112
5.472,10.72680
5.480,12.74188
5.488,14.63521
5.496,16.37182
5.504,17.92458
5.512,19.27520
5.520,20.41460
5.528,21.34257
5.536,22.06676
5.544,22.60120
5.552,22.96442
5.560,23.17740
5.568,23.26165
5.576,23.23748
5.584,23.12262
5.592,22.93129
5.600,22.67368
5.608,22.35586
5.616,21.98010
5.624,21.54548
5.632,21.04881
5.640,20.48575
5.648,19.85202
5.656,19.14466
5.664,18.36314
5.672,17.51027
5.680,16.59271
5.688,15.62102
5.696,14.60930
5.704,13.57431
5.712,12.53438
5.720,11.50795
5.728,10.51224
5.736,9.56190
5.744,8.66810
5.752,7.83796
5.760,7.07450
5.768,6.37690
5.776,5.74124
5.784,5.16129
5.792,4.62941
5.800,4.13744
5.808,3.67738
5.816,3.24189
5.824,2.82456
5.832,2.42003
5.840,2.02395
5.848,1.63288
5.856,1.24419
5.864,0.85587
5.872,0.46642
5.880,0.07485
5.888,-0.31939
5.896,-0.71623
5.904,-1.11485
5.912,-1.51342
5.920,-1.90894
5.928,-2.29724
5.936,-2.67321
5.944,-3.03130
5.952,-3.36630
5.960,-3.67413
5.968,-3.95259
5.976,-4.20183
5.984,-4.42439
5.992,-4.62493
6.000,-4.80963
6.008,-4.98535
6.016,-5.15882
6.024,-5.33582
6.032,-5.52061
6.040,-5.71557
6.048,-5.92121
6.056,-6.13624
6.064,-6.35800
6.072,-6.58279
6.080,-6.80638
6.088,-7.02442
6.096,-7.23274
6.104,-7.42769
6.112,-7.60629
6.120,-7.76649
6.128,-7.90732
6.136,-8.02907
6.144,-8.13333
6.152,-8.22300
6.160,-8.30205
6.168,-8.37526
6.176,-8.44785
6.184,-8.52503
6.192,-8.61152
6.200,-8.71106
6.208,-8.82592
6.216,-8.95655
6.224,-9.10149
6.232,-9.25735
6.240,-9.41923
6.248,-9.58115
6.256,-9.73676
6.264,-9.87999
6.272,-10.00578
6.280,-10.11054
6.288,-10.19248
6.296,-10.25170
6.304,-10.29001
6.312,-10.31063
6.320,-10.31783
6.328,-10.31640
6.336,-10.31125
6.344,-10.30683
6.352,-10.30677
6.360,-10.31356
6.368,-10.32842
6.376,-10.35128
6.384,-10.38096
6.392,-10.41533
6.400,-10.45170
6.408,-10.48712
6.416,-10.51883
6.424,-10.54466
6.432,-10.56332
6.440,-10.57460
6.448,-10.57934
6.456,-10.57912
6.464,-10.57584
6.472,-10.57101
6.480,-10.56517
6.488,-10.55717
6.496,-10.54366
6.504,-10.51861
6.512,-10.47313
6.520,-10.39529
6.528,-10.27027
6.536,-10.08058
6.544,-9.80658
6.552,-9.42716
6.560,-8.92081
6.568,-8.26697
6.576,-7.44751
6.584,-6.44851
6.592,-5.26187
6.600,-3.88672
6.608,-2.33049
6.616,-0.60936
6.624,1.25189
6.632,3.22069
6.640,5.25822
6.648,7.32136
6.656,9.36513
6.664,11.34529
6.672,13.22094
6.680,14.95682
6.688,16.52510
6.696,17.90656
6.704,19.09102
6.712,20.07707
6.720,20.87110
6.728,21.48574
6.736,21.93786
6.744,22.24650
6.752,22.43079
6.760,22.50827
6.768,22.49359
6.776,22.39771
6.784,22.22767
6.792,21.98672
6.800,21.67491
6.808,21.28999
6.816,20.82848
6.824,20.28678
6.832,19.66230
6.840,18.95429
6.848,18.16466
6.856,17.29839
6.864,16.36395
6.872,15.37333
6.880,14.34194
6.888,13.28812
6.896,12.23230
6.904,11.19589
6.912,10.19978
6.920,9.26274
6.928,8.39987
6.936,7.62123
6.944,6.93094
6.952,6.32695
6.960,5.80148
6.968,5.34207
6.976,4.93322
6.984,4.55811
6.992,4.20045
7.000,3.84599
7.008,3.48369
7.016,3.10642
7.024,2.71114
7.032,2.29861
7.040,1.87274
7.048,1.43965
7.056,1.00655
7.064,0.58066
7.072,0.16826
7.080,-0.22598
7.088,-0.59932
7.096,-0.95093
7.104,-1.28166
7.112,-1.59362
7.120,-1.88968
7.128,-2.17304
7.136,-2.44673
7.144,-2.71332
7.152,-2.97469
7.160,-3.23197
7.168,-3.48561
7.176,-3.73555
7.184,-3.98148
7.192,-4.22312
7.200,-4.46054
7.208,-4.69436
7.216,-4.92586
7.224,-5.15681
7.232,-5.38920
7.240,-5.62478
7.248,-5.86457
7.256,-6.10851
7.264,-6.35522
7.272,-6.60203
7.280,-6.84525
7.288,-7.08064
7.296,-7.30392
7.304,-7.51136
7.312,-7.70017
7.320,-7.86882
7.328,-8.01717
7.336,-8.14636
7.344,-8.25859
7.352,-8.35681
7.360,-8.44425
7.368,-8.52416
7.376,-8.59952
7.384,-8.67296
7.392,-8.74670
7.400,-8.82256
7.408,-8.90191
7.416,-8.98556
7.424,-9.07372
7.432,-9.16587
7.440,-9.26076
7.448,-9.35652
7.456,-9.45089
7.464,-9.54151
7.472,-9.62638
7.480,-9.70419
7.488,-9.77461
7.496,-9.83844
7.504,-9.89745
7.512,-9.95408
7.520,-10.01087
7.528,-10.06993
7.536,-10.13239
7.544,-10.19808
7.552,-10.26549
7.560,-10.33200
7.568,-10.39445
7.576,-10.44965
7.584,-10.49497
7.592,-10.52869
7.600,-10.55017
7.608,-10.55974
7.616,-10.55851
7.624,-10.54805
7.632,-10.53015
7.640,-10.50652
7.648,-10.47868
7.656,-10.44779
7.664,-10.41448
7.672,-10.37862
7.680,-10.33888
7.688,-10.29222
7.696,-10.23320
7.704,-10.15332
7.712,-10.04059
7.720,-9.87939
7.728,-9.65084
7.736,-9.33365
7.744,-8.90532
7.752,-8.34367
7.760,-7.62848
7.768,-6.74313
7.776,-5.67626
7.784,-4.42311
7.792,-2.98669
7.800,-1.37842
7.808,0.38168
7.816,2.26549
7.824,4.23795
7.832,6.25884
7.840,8.28510
7.848,10.27344
7.856,12.18289
7.864,13.97715
7.872,15.62647
7.880,17.10871
7.888,18.40985
7.896,19.52358
7.904,20.45049
7.912,21.19678
7.920,21.77282
7.928,22.19169
7.936,22.46778
7.944,22.61558
7.952,22.64876
7.960,22.57953
7.968,22.41836
7.976,22.17382
7.984,21.85269
7.992,21.46009
8.000,20.99968
8.008,20.47397
8.016,19.88468
8.024,19.23315
8.032,18.52088
8.040,17.75003
8.048,16.92399
8.056,16.04788
8.064,15.12896
8.072,14.17683
8.080,13.20338
8.088,12.22240
8.096,11.24885
8.104,10.29787
8.112,9.38363
8.120,8.51815
8.128,7.71037
8.136,6.96550
8.144,6.28479
8.152,5.66567
8.160,5.10233
8.168,4.58647
8.176,4.10836
8.184,3.65785
8.192,3.22534
8.200,2.80260
8.208,2.38337
8.216,1.96371
8.224,1.54201
8.232,1.11882
8.240,0.69633
8.248,0.27776
8.256,-0.13334
8.264,-0.53369
8.272,-0.92081
8.280,-1.29326
8.288,-1.65078
8.296,-1.99413
8.304,-2.32476
8.312,-2.64440
8.320,-2.95451
8.328,-3.25594
8.336,-3.54863
8.344,-3.83158
8.352,-4.10298
8.360,-4.36058
8.368,-4.60214
8.376,-4.82596
8.384,-5.03127
8.392,-5.21855
8.400,-5.38968
8.408,-5.54780
8.416,-5.69706
8.424,-5.84216
8.432,-5.98777
8.440,-6.13801
8.448,-6.29595
8.456,-6.46335
8.464,-6.64056
8.472,-6.82665
8.480,-7.01961
8.488,-7.21670
8.496,-7.41482
8.504,-7.61080
8.512,-7.80170
8.520,-7.98513
8.528,-8.15934
8.536,-8.32344
8.544,-8.47729
8.552,-8.62149
8.560,-8.75708
8.568,-8.88536
8.576,-9.00753
8.584,-9.12447
8.592,-9.23656
8.600,-9.34358
8.608,-9.44474
8.616,-9.53889
8.624,-9.62476
8.632,-9.70132
8.640,-9.76807
8.648,-9.82529
8.656,-9.87412
8.664,-9.91649
8.672,-9.95483
8.680,-9.99172
8.688,-10.02946
8.696,-10.06972
8.704,-10.11330
8.712,-10.15996
8.720,-10.20859
8.728,-10.25734
8.736,-10.30404
8.744,-10.34654
8.752,-10.38312
8.760,-10.41277
8.768,-10.43530
8.776,-10.45133
8.784,-10.46208
8.792,-10.46912
8.800,-10.47406
8.808,-10.47819
8.816,-10.48231
8.824,-10.48659
8.832,-10.49056
8.840,-10.49320
8.848,-10.49298
8.856,-10.48787
8.864,-10.47515
8.872,-10.45108
8.880,-10.41050
8.888,-10.34624
8.896,-10.24873
8.904,-10.10564
8.912,-9.90186
8.920,-9.61974
8.928,-9.23970
8.936,-8.74116
8.944,-8.10373
8.952,-7.30868
8.960,-6.34052
8.968,-5.18862
8.976,-3.84872
8.984,-2.32420
8.992,-0.62695
9.000,1.22219
9.008,3.19376
9.016,5.25060
9.024,7.34956
9.032,9.44384
9.040,11.48574
9.048,13.42959
9.056,15.23449
9.064,16.86675
9.072,18.30166
9.080,19.52461
9.088,20.53120
9.096,21.32663
9.104,21.92422
9.112,22.34328
9.120,22.60681
9.128,22.73895
9.136,22.76279
9.144,22.69849
9.152,22.56201
9.160,22.36440
9.168,22.11167
9.176,21.80522
9.184,21.44255
9.192,21.01843
9.200,20.52618
9.208,19.95904
9.216,19.31163
9.224,18.58127
9.232,17.76898
9.240,16.88022
9.248,15.92504
9.256,14.91778
9.264,13.87625
9.272,12.82054
9.280,11.77159
9.288,10.74965
9.296,9.77282
9.304,8.85579
9.312,8.00895
9.320,7.23792
9.328,6.54364
9.336,5.92280
9.344,5.36861
9.352,4.87182
9.360,4.42176
9.368,4.00733
9.376,3.61782
9.384,3.24355
9.392,2.87627
9.400,2.50945
9.408,2.13830
9.416,1.75976
9.424,1.37239
9.432,0.97627
9.440,0.57286
9.448,0.16488
9.456,-0.24387
9.464,-0.64879
9.472,-1.04491
9.480,-1.42731
9.488,-1.79167
9.496,-2.13473
9.504,-2.45467
9.512,-2.75128
9.520,-3.02599
9.528,-3.28159
9.536,-3.52195
9.544,-3.75144
9.552,-3.97437
9.560,-4.19446
9.568,-4.41432
9.576,-4.63528
9.584,-4.85740
9.592,-5.07978
9.600,-5.30100
9.608,-5.51956
9.616,-5.73428
9.624,-5.94447
9.632,-6.14998
9.640,-6.35119
9.648,-6.54875
9.656,-6.74345
9.664,-6.93593
9.672,-7.12651
9.680,-7.31508
9.688,-7.50097
9.696,-7.68308
9.704,-7.85993
9.712,-8.02985
9.720,-8.19117
9.728,-8.34244
9.736,-8.48259
9.744,-8.61102
9.752,-8.72771
9.760,-8.83320
9.768,-8.92862
9.776,-9.01559
9.784,-9.09612
9.792,-9.17246
9.800,-9.24690
9.808,-9.32162
9.816,-9.39858
9.824,-9.47940
9.832,-9.56528
9.840,-9.65697
9.848,-9.75463
9.856,-9.85783
9.864,-9.96551
9.872,-10.07597
9.880,-10.18706
9.888,-10.29627
9.896,-10.40094
9.904,-10.49844
9.912,-10.58629
9.920,-10.66236
9.928,-10.72502
9.936,-10.77336
9.944,-10.80731
9.952,-10.82780
9.960,-10.83674
9.968,-10.83682
9.976,-10.83121
9.984,-10.82312
9.992,-10.81534
10.000,-10.80986
10.008,-10.80774
10.016,-10.80906
10.024,-10.81303
10.032,-10.81808
10.040,-10.82197
10.048,-10.82168
10.056,-10.81322
10.064,-10.79131
10.072,-10.74898
10.080,-10.67710
10.088,-10.56411
10.096,-10.39583
10.104,-10.15560
10.112,-9.82468
10.120,-9.38304
10.128,-8.81036
10.136,-8.08736
10.144,-7.19732
10.152,-6.12763
10.160,-4.87136
10.168,-3.42862
10.176,-1.80757
10.184,-0.02486
10.192,1.89433
10.200,3.91713
10.208,6.00424
10.216,8.11190
10.224,10.19429
10.232,12.20620
10.240,14.10575
10.248,15.85679
10.256,17.43082
10.264,18.80819
10.272,19.97849
10.280,20.94028
10.288,21.70012
10.296,22.27105
10.304,22.67072
10.312,22.91943
10.320,23.03800
10.328,23.04600
10.336,22.96022
10.344,22.79362
10.352,22.55485
10.360,22.24829
10.368,21.87461
10.376,21.43169
10.384,20.91595
10.392,20.32373
10.400,19.65272
10.408,18.90303
10.416,18.07802
10.424,17.18455
10.432,16.23287
10.440,15.23606
10.448,14.20924
10.456,13.16866
10.464,12.13076
10.472,11.11137
10.480,10.12507
10.488,9.18463
10.496,8.30061
10.504,7.48092
10.512,6.73052
10.520,6.05115
10.528,5.44126
10.536,4.89616
10.544,4.40837
10.552,3.96833
10.560,3.56525
10.568,3.18813
10.576,2.82671
10.584,2.47224
10.592,2.11793
10.600,1.75913
10.608,1.39314
10.616,1.01888
10.624,0.63657
10.632,0.24733
10.640,-0.14704
10.648,-0.54415
10.656,-0.94111
10.664,-1.33448
10.672,-1.72041
10.680,-2.09479
10.688,-2.45352
10.696,-2.79291
10.704,-3.11007
10.712,-3.40332
10.720,-3.67248
10.728,-3.91893
10.736,-4.14558
10.744,-4.35661
10.752,-4.55706
10.760,-4.75240
10.768,-4.94794
10.776,-5.14826
10.784,-5.35664
10.792,-5.57462
10.800,-5.80174
10.808,-6.03557
10.816,-6.27199
10.824,-6.50570
10.832,-6.73096
10.840,-6.94234
10.848,-7.13546
10.856,-7.30762
10.864,-7.45815
10.872,-7.58861
10.880,-7.70257
10.888,-7.80520
10.896,-7.90254
10.904,-8.00063
10.912,-8.10470
10.920,-8.21842
10.928,-8.34345
10.936,-8.47921
10.944,-8.62309
10.952,-8.77085
10.960,-8.91729
10.968,-9.05703
10.976,-9.18529
10.984,-9.29855
10.992,-9.39490
11.000,-9.47417
11.008,-9.53772
11.016,-9.58807
11.024,-9.62839
11.032,-9.66197
11.040,-9.69183
11.048,-9.72047
11.056,-9.74980
11.064,-9.78131
11.072,-9.81627
11.080,-9.85589
11.088,-9.90136
11.096,-9.95375
11.104,-10.01367
11.112,-10.08091
11.120,-10.15406
11.128,-10.23034
11.136,-10.30562
11.144,-10.37467
11.152,-10.43182
11.160,-10.47167
11.168,-10.49007
11.176,-10.48486
11.184,-10.45654
11.192,-10.40840
11.200,-10.34630
11.208,-10.27794
11.216,-10.21163
11.224,-10.15487
11.232,-10.11276
11.240,-10.08657
11.248,-10.07255
11.256,-10.06134
11.264,-10.03788
11.272,-9.98204
11.280,-9.86978
11.288,-9.67468
11.296,-9.36982
11.304,-8.92963
11.312,-8.33172
11.320,-7.55849
11.328,-6.59835
11.336,-5.44677
11.344,-4.10674
11.352,-2.58899
11.360,-0.91172
11.368,0.90002
11.376,2.81537
11.384,4.79891
11.392,6.81229
11.400,8.81589
11.408,10.77061
11.416,12.63964
11.424,14.38998
11.432,15.99383
11.440,17.42960
11.448,18.68246
11.456,19.74457
11.464,20.61479
11.472,21.29796
11.480,21.80395
11.488,22.14624
11.496,22.34048
11.504,22.40294
11.512,22.34929
11.520,22.19354
11.528,21.94748
11.536,21.62043
11.544,21.21936
11.552,20.74924
11.560,20.21360
11.568,19.61513
11.576,18.95629
11.584,18.23987
11.592,17.46940
11.600,16.64960
11.608,15.78653
11.616,14.88777
11.624,13.96232
11.632,13.02039
11.640,12.07311
11.648,11.13206
11.656,10.20883
11.664,9.31446
11.672,8.45891
11.680,7.65057
11.688,6.89578
11.696,6.19848
11.704,5.56003
11.712,4.97911
11.720,4.45201
11.728,3.97293
11.736,3.53460
11.744,3.12893
11.752,2.74768
11.760,2.38309
11.768,2.02841
11.776,1.67822
11.784,1.32856
11.792,0.97690
11.800,0.62198
11.808,0.26366
11.816,-0.09719
11.824,-0.45883
11.832,-0.81870
11.840,-1.17364
11.848,-1.52015
11.856,-1.85472
11.864,-2.17434
11.872,-2.47686
11.880,-2.76135
11.888,-3.02822
11.896,-3.27929
11.904,-3.51758
11.912,-3.74697
11.920,-3.97167
11.928,-4.19563
11.936,-4.42190
11.944,-4.65222
11.952,-4.88675
11.960,-5.12411
11.968,-5.36171
11.976,-5.59621
11.984,-5.82415
11.992,-6.04252
12.000,-6.24927
12.008,-6.44358
12.016,-6.62601
12.024,-6.79830
12.032,-6.96312
12.040,-7.12349
12.048,-7.28229
12.056,-7.44168
12.064,-7.60270
12.072,-7.76509
12.080,-7.92725
12.088,-8.08658
12.096,-8.23993
12.104,-8.38406
12.112,-8.51618
12.120,-8.63424
12.128,-8.73706
12.136,-8.82444
12.144,-8.89707
12.152,-8.95660
12.160,-9.00560
12.168,-9.04752
12.176,-9.08659
12.184,-9.12747
12.192,-9.17486
12.200,-9.23290
12.208,-9.30467
12.216,-9.39175
12.224,-9.49401
12.232,-9.60967
12.240,-9.73547
12.248,-9.86708
12.256,-9.99948
12.264,-10.12736
12.272,-10.24543
12.280,-10.34867
12.288,-10.43262
12.296,-10.49359
12.304,-10.52893
12.312,-10.53734
12.320,-10.51919
12.328,-10.47668
12.336,-10.41398
12.344,-10.33698
12.352,-10.25286
12.360,-10.16942
12.368,-10.09423
12.376,-10.03372
12.384,-9.99233
12.392,-9.97174
12.400,-9.97037
12.408,-9.98313
12.416,-10.00138
12.424,-10.01309
12.432,-10.00320
12.440,-9.95408
12.448,-9.84605
12.456,-9.65811
12.464,-9.36869
12.472,-8.95658
12.480,-8.40198
12.488,-7.68757
12.496,-6.79968
12.504,-5.72945
12.512,-4.47383
12.520,-3.03649
12.528,-1.42836
12.536,0.33209
12.544,2.21902
12.552,4.19984
12.560,6.23626
12.568,8.28589
12.576,10.30429
12.584,12.24739
12.592,14.07403
12.600,15.74847
12.608,17.24250
12.616,18.53691
12.624,19.62220
12.632,20.49823
12.640,21.17316
12.648,21.66170
12.656,21.98303
12.664,22.15862
12.672,22.21016
12.680,22.15784
12.688,22.01900
12.696,21.80716
12.704,21.53155
12.712,21.19708
12.720,20.80474
12.728,20.35233
12.736,19.83560
12.744,19.24953
12.752,18.58981
12.760,17.85424
12.768,17.04391
12.776,16.16406
12.784,15.22444
12.792,14.23898
12.800,13.22496
12.808,12.20169
12.816,11.18884
12.824,10.20481
12.832,9.26517
12.840,8.38153
12.848,7.56078
12.856,6.80514
12.864,6.11267
12.872,5.47833
12.880,4.89527
12.888,4.35608
12.896,3.85378
12.904,3.38246
12.912,2.93753
12.920,2.51561
12.928,2.11424
12.936,1.73144
12.944,1.36529
12.952,1.01359
12.960,0.67367
12.968,0.34240
12.976,0.01634
12.984,-0.30787
12.992,-0.63311
13.000,-0.96128
13.008,-1.29297
13.016,-1.62729
13.024,-1.96199
13.032,-2.29386
13.040,-2.61926
13.048,-2.93470
13.056,-3.23738
13.064,-3.52556
13.072,-3.79873
13.080,-4.05755
13.088,-4.30367
13.096,-4.53941
13.104,-4.76738
13.112,-4.99011
13.120,-5.20977
13.128,-5.42799
13.136,-5.64582
13.144,-5.86381
13.152,-6.08209
13.160,-6.30040
13.168,-6.51807
13.176,-6.73396
13.184,-6.94627
13.192,-7.15260
13.200,-7.35003
13.208,-7.53539
13.216,-7.70573
13.224,-7.85884
13.232,-7.99368
13.240,-8.11070
13.248,-8.21200
13.256,-8.30106
13.264,-8.38241
13.272,-8.46098
13.280,-8.54141
13.288,-8.62741
13.296,-8.72123
13.304,-8.82338
13.312,-8.93256
13.320,-9.04595
13.328,-9.15969
13.336,-9.26950
13.344,-9.37133
13.352,-9.46190
13.360,-9.53908
13.368,-9.60211
13.376,-9.65162
13.384,-9.68945
13.392,-9.71832
13.400,-9.74144
13.408,-9.76198
13.416,-9.78273
13.424,-9.80581
13.432,-9.83265
13.440,-9.86396
13.448,-9.89984
13.456,-9.93991
13.464,-9.98336
13.472,-10.02895
13.480,-10.07505
13.488,-10.11965
13.496,-10.16047
13.504,-10.19517
13.512,-10.22162
13.520,-10.23826
13.528,-10.24443
13.536,-10.24062
13.544,-10.22842
13.552,-10.21022
13.560,-10.18848
13.568,-10.16484
13.576,-10.13906
13.584,-10.10806
13.592,-10.06518
13.600,-9.99979
13.608,-9.89738
13.616,-9.73992
13.624,-9.50674
13.632,-9.17566
13.640,-8.72428
13.648,-8.13149
13.656,-7.37896
13.664,-6.45259
13.672,-5.34382
13.680,-4.05068
13.688,-2.57850
13.696,-0.94017
13.704,0.84394
13.712,2.74654
13.720,4.73431
13.728,6.76911
13.736,8.80953
13.744,10.81277
13.752,12.73676
13.760,14.54235
13.768,16.19555
13.776,17.66937
13.784,18.94521
13.792,20.01346
13.800,20.87339
13.808,21.53235
13.816,22.00437
13.824,22.30832
13.832,22.46586
13.840,22.49938
13.848,22.42998
13.856,22.27583
13.864,22.05091
13.872,21.76430
13.880,21.42000
13.888,21.01749
13.896,20.55276
13.904,20.01974
13.912,19.41207
13.920,18.72477
13.928,17.95585
13.936,17.10756
13.944,16.18713
13.952,15.20700
13.960,14.18432
13.968,13.13982
13.976,12.09613
13.984,11.07575
13.992,10.09899
14.000,9.18205
14.008,8.33573
14.016,7.56462
14.024,6.86726
14.032,6.23685
14.040,5.66262
14.048,5.13160
14.056,4.63038
14.064,4.14688
14.072,3.67164
14.080,3.19872
14.088,2.72595
14.096,2.25458
14.104,1.78851
14.112,1.33320
14.120,0.89438
14.128,0.47704
14.136,0.08452
14.144,-0.28193
14.152,-0.62322
14.160,-0.94213
14.168,-1.24270
14.176,-1.52951
14.184,-1.80692
14.192,-2.07848
14.200,-2.34653
14.208,-2.61214
14.216,-2.87526
14.224,-3.13514
14.232,-3.39078
14.240,-3.64137
14.248,-3.88651
14.256,-4.12637
14.264,-4.36162
14.272,-4.59329
14.280,-4.82260
14.288,-5.05076
14.296,-5.27879
14.304,-5.50740
14.312,-5.73683
14.320,-5.96674
14.328,-6.19615
14.336,-6.42352
14.344,-6.64685
14.352,-6.86398
14.360,-7.07297
14.368,-7.27244
14.376,-7.46182
14.384,-7.64150
14.392,-7.81267
14.400,-7.97708
14.408,-8.13653
14.416,-8.29255
14.424,-8.44602
14.432,-8.59697
14.440,-8.74451
14.448,-8.88683
14.456,-9.02138
14.464,-9.14516
14.472,-9.25520
14.480,-9.34904
14.488,-9.42527
14.496,-9.48396
14.504,-9.52679
14.512,-9.55709
14.520,-9.57945
14.528,-9.59919
14.536,-9.62174
14.544,-9.65196
14.552,-9.69360
14.560,-9.74889
14.568,-9.81830
14.576,-9.90053
14.584,-9.99265
14.592,-10.09053
14.600,-10.18921
14.608,-10.28351
14.616,-10.36855
14.624,-10.44020
14.632,-10.49542
14.640,-10.53244
14.648,-10.55073
14.656,-10.55085
14.664,-10.53419
14.672,-10.50266
14.680,-10.45851
14.688,-10.40417
14.696,-10.34214
14.704,-10.27499
14.712,-10.20530
14.720,-10.13553
14.728,-10.06776
14.736,-10.00329
14.744,-9.94198
14.752,-9.88149
14.760,-9.81659
14.768,-9.73844
14.776,-9.63437
14.784,-9.48792
14.792,-9.27947
14.800,-8.98729
14.808,-8.58891
14.816,-8.06274
14.824,-7.38954
14.832,-6.55396
14.840,-5.54562
14.848,-4.36009
14.856,-2.99945
14.864,-1.47262
14.872,0.20456
14.880,2.00959
14.888,3.91368
14.896,5.88261
14.904,7.87786
14.912,9.85819
14.920,11.78164
14.928,13.60786
14.936,15.30056
14.944,16.82978
14.952,18.17369
14.960,19.31968
14.968,20.26451
14.976,21.01358
14.984,21.57938
14.992,21.97934
15.000,22.23344
15.008,22.36183
15.016,22.38278
15.024,22.31120
15.032,22.15787
15.040,21.92926
15.048,21.62800
15.056,21.25378
15.064,20.80441
15.072,20.27707
15.080,19.66952
15.088,18.98117
15.096,18.21400
15.104,17.37318
15.112,16.46734
15.120,15.50850
15.128,14.51154
15.136,13.49339
15.144,12.47197
15.152,11.46505
15.160,10.48907
15.168,9.55816
15.176,8.68345
15.184,7.87259
15.192,7.12961
15.200,6.45502
15.208,5.84610
15.216,5.29734
15.224,4.80104
15.232,4.34803
15.240,3.92843
15.248,3.53247
15.256,3.15121
15.264,2.77710
15.272,2.40431
15.280,2.02891
15.288,1.64875
15.296,1.26322
15.304,0.87296
15.312,0.47942
15.320,0.08457
15.328,-0.30943
15.336,-0.70038
15.344,-1.08618
15.352,-1.46475
15.360,-1.83407
15.368,-2.19204
15.376,-2.53649
15.384,-2.86518
15.392,-3.17598
15.400,-3.46700
15.408,-3.73688
15.416,-3.98501
15.424,-4.21176
15.432,-4.41865
15.440,-4.60829
15.448,-4.78427
15.456,-4.95080
15.464,-5.11235
15.472,-5.27316
15.480,-5.43687
15.488,-5.60626
15.496,-5.78307
15.504,-5.96800
15.512,-6.16077
15.520,-6.36030
15.528,-6.56493
15.536,-6.77271
15.544,-6.98166
15.552,-7.19001
15.560,-7.39637
15.568,-7.59978
15.576,-7.79967
15.584,-7.99577
15.592,-8.18790
15.600,-8.37569
15.608,-8.55836
15.616,-8.73457
15.624,-8.90239
15.632,-9.05948
15.640,-9.20342
15.648,-9.33210
15.656,-9.44417
15.664,-9.53939
15.672,-9.61878
15.680,-9.68465
15.688,-9.74035
15.696,-9.78980
15.704,-9.83693
15.712,-9.88517
15.720,-9.93691
15.728,-9.99330
15.736,-10.05417
15.744,-10.11819
15.752,-10.18322
15.760,-10.24661
15.768,-10.30567
15.776,-10.35793
15.784,-10.40146
15.792,-10.43489
15.800,-10.45753
15.808,-10.46926
15.816,-10.47055
15.824,-10.46249
15.832,-10.44683
15.840,-10.42592
15.848,-10.40264
15.856,-10.38011
15.864,-10.36145
15.872,-10.34936
15.880,-10.34575
15.888,-10.35138
15.896,-10.36547
15.904,-10.38539
15.912,-10.40646
15.920,-10.42172
15.928,-10.42186
15.936,-10.39518
15.944,-10.32768
15.952,-10.20321
15.960,-10.00380
15.968,-9.71012
15.976,-9.30234
15.984,-8.76103
15.992,-8.06846
16.000,-7.20993
16.008,-6.17513
16.016,-4.95942
16.024,-3.56484
16.032,-2.00076
16.040,-0.28397
16.048,1.56170
16.056,3.50618
16.064,5.51451
16.072,7.54837
16.080,9.56780
16.088,11.53299
16.096,13.40607
16.104,15.15276
16.112,16.74391
16.120,18.15680
16.128,19.37607
16.136,20.39426
16.144,21.21176
16.152,21.83626
16.160,22.28148
16.168,22.56552
16.176,22.70884
16.184,22.73223
16.192,22.65491
16.200,22.49307
16.208,22.25880
16.216,21.95963
16.224,21.59859
16.232,21.17476
16.240,20.68432
16.248,20.12198
16.256,19.48260
16.264,18.76280
16.272,17.96232
16.280,17.08486
16.288,16.13840
16.296,15.13497
16.304,14.09004
16.312,13.02158
16.320,11.94893
16.328,10.89170
16.336,9.86846
16.344,8.89559
16.352,7.98615
16.360,7.14903
16.368,6.38842
16.376,5.70381
16.384,5.09047
16.392,4.54049
16.400,4.04406
16.408,3.59084
16.416,3.17120
16.424,2.77691
16.432,2.40152
16.440,2.04015
16.448,1.68907
16.456,1.34517
16.464,1.00546
16.472,0.66686
16.480,0.32617
16.488,-0.01954
16.496,-0.37253
16.504,-0.73384
16.512,-1.10287
16.520,-1.47727
16.528,-1.85309
16.536,-2.22516
16.544,-2.58777
16.552,-2.93528
16.560,-3.26280
16.568,-3.56667
16.576,-3.84484
16.584,-4.09698
16.592,-4.32441
16.600,-4.52991
16.608,-4.71742
16.616,-4.89158
16.624,-5.05734
16.632,-5.21951
16.640,-5.38238
16.648,-5.54931
16.656,-5.72255
16.664,-5.90311
16.672,-6.09078
16.680,-6.28436
16.688,-6.48197
16.696,-6.68144
16.704,-6.88067
16.712,-7.07793
16.720,-7.27197
16.728,-7.46208
16.736,-7.64799
16.744,-7.82974
16.752,-8.00756
16.760,-8.18164
16.768,-8.35203
16.776,-8.51851
16.784,-8.68042
16.792,-8.83669
16.800,-8.98581
16.808,-9.12601
16.816,-9.25543
16.824,-9.37239
16.832,-9.47570
16.840,-9.56479
16.848,-9.63971
16.856,-9.70103
16.864,-9.74966
16.872,-9.78666
16.880,-9.81321
16.888,-9.83064
16.896,-9.84062
16.904,-9.84538
16.912,-9.84776
16.920,-9.85119
16.928,-9.85947
16.936,-9.87621
16.944,-9.90431
16.952,-9.94525
16.960,-9.99869
16.968,-10.06219
16.976,-10.13148
16.984,-10.20090
16.992,-10.26434
17.000,-10.31620
17.008,-10.35233
17.016,-10.37076
17.024,-10.37200
17.032,-10.35899
17.040,-10.33654
17.048,-10.31054
17.056,-10.28686
17.064,-10.27031
17.072,-10.26359
17.080,-10.26650
17.088,-10.27531
17.096,-10.28242
17.104,-10.27629
17.112,-10.24164
17.120,-10.15995
17.128,-10.01035
17.136,-9.77064
17.144,-9.41856
17.152,-8.93314
17.160,-8.29594
17.168,-7.49231
17.176,-6.51239
17.184,-5.35191
17.192,-4.01272
17.200,-2.50312
17.208,-0.83793
17.216,0.96163
17.224,2.86837
17.232,4.84992
17.240,6.86982
17.248,8.88906
17.256,10.86783
17.264,12.76753
17.272,14.55270
17.280,16.19288
17.288,17.66402
17.296,18.94948
17.304,20.04045
17.312,20.93584
17.320,21.64155
17.328,22.16932
17.336,22.53511
17.344,22.75728
17.352,22.85472
17.360,22.84507
17.368,22.74343
17.376,22.56130
17.384,22.30618
17.392,21.98151
17.400,21.58719
17.408,21.12044
17.416,20.57702
17.424,19.95263
17.432,19.24429
17.440,18.45159
17.448,17.57758
17.456,16.62930
17.464,15.61781
17.472,14.55795
17.480,13.46764
17.488,12.36695
17.496,11.27688
17.504,10.21797
17.512,9.20884
17.520,8.26479
17.528,7.39674
17.536,6.61047
17.544,5.90654
17.552,5.28058
17.560,4.72419
17.568,4.22602
17.576,3.77320
17.584,3.35263
17.592,2.95230
17.600,2.56236
17.608,2.17572
17.616,1.78835
17.624,1.39904
17.632,1.00883
17.640,0.62020
17.648,0.23623
17.656,-0.14013
17.664,-0.50656
17.672,-0.86156
17.680,-1.20449
17.688,-1.53543
17.696,-1.85500
17.704,-2.16418
17.712,-2.46420
17.720,-2.75636
17.728,-3.04200
17.736,-3.32242
17.744,-3.59879
17.752,-3.87208
17.760,-4.14293
17.768,-4.41153
17.776,-4.67753
17.784,-4.94009
17.792,-5.19799
17.800,-5.44982
17.808,-5.69420
17.816,-5.92985
17.824,-6.15567
17.832,-6.37073
17.840,-6.57432
17.848,-6.76592
17.856,-6.94531
17.864,-7.11264
17.872,-7.26857
17.880,-7.41419
17.888,-7.55105
17.896,-7.68090
17.904,-7.80555
17.912,-7.92667
17.920,-8.04565
17.928,-8.16356
17.936,-8.28116
17.944,-8.39901
17.952,-8.51750
17.960,-8.63699
17.968,-8.75780
17.976,-8.88023
17.984,-9.00437
17.992,-9.13005
18.000,-9.25666
18.008,-9.38302
18.016,-9.50748
18.024,-9.62795
18.032,-9.74217
18.040,-9.84791
18.048,-9.94331
18.056,-10.02700
18.064,-10.09825
18.072,-10.15702
18.080,-10.20384
18.088,-10.23980
18.096,-10.26639
18.104,-10.28541
18.112,-10.29888
18.120,-10.30885
18.128,-10.31726
18.136,-10.32568
18.144,-10.33511
18.152,-10.34581
18.160,-10.35736
18.168,-10.36879
18.176,-10.37886
18.184,-10.38647
18.192,-10.39089
18.200,-10.39211
18.208,-10.39085
18.216,-10.38853
18.224,-10.38694
18.232,-10.38764
18.240,-10.39132
18.248,-10.39695
18.256,-10.40106
18.264,-10.39708
18.272,-10.37501
18.280,-10.32129
18.288,-10.21905
18.296,-10.04868
18.304,-9.78872
18.312,-9.41689
18.320,-8.91132
18.328,-8.25176
18.336,-7.42095
18.344,-6.40595
18.352,-5.19950
18.360,-3.80117
18.368,-2.21840
18.376,-0.46695
18.384,1.42900
18.392,3.43743
18.400,5.51965
18.408,7.63213
18.416,9.72879
18.424,11.76367
18.432,13.69366
18.440,15.48110
18.448,17.09579
18.456,18.51646
18.464,19.73128
18.472,20.73761
18.480,21.54098
18.488,22.15356
18.496,22.59222
18.504,22.87641
18.512,23.02614
18.520,23.06018
18.528,22.99459
18.536,22.84181
18.544,22.61023
18.552,22.30424
18.560,21.92478
18.568,21.47020
18.576,20.93752
18.584,20.32374
18.592,19.62724
18.600,18.84903
18.608,17.99354
18.616,17.06902
18.624,16.08741
18.632,15.06371
18.640,14.01502
18.648,12.95932
18.656,11.91430
18.664,10.89618
18.672,9.91881
18.680,8.99304
18.688,8.12644
18.696,7.32319
18.704,6.58431
18.712,5.90796
18.720,5.28993
18.728,4.72419
18.736,4.20351
18.744,3.72016
18.752,3.26646
18.760,2.83525
18.768,2.42021
18.776,2.01603
18.784,1.61852
18.792,1.22464
18.800,0.83251
18.808,0.44137
18.816,0.05150
18.824,-0.33588
18.832,-0.71887
18.840,-1.09511
18.848,-1.46220
18.856,-1.81800
18.864,-2.16095
18.872,-2.49016
18.880,-2.80548
18.888,-3.10731
18.896,-3.39643
18.904,-3.67379
18.912,-3.94032
18.920,-4.19677
18.928,-4.44375
18.936,-4.68170
18.944,-4.91107
18.952,-5.13239
18.960,-5.34646
18.968,-5.55439
18.976,-5.75758
18.984,-5.95772
18.992,-6.15655
19.000,-6.35574
19.008,-6.55669
19.016,-6.76037
19.024,-6.96718
19.032,-7.17689
19.040,-7.38864
19.048,-7.60101
19.056,-7.81207
19.064,-8.01944
19.072,-8.22038
19.080,-8.41176
19.088,-8.59024
19.096,-8.75243
19.104,-8.89530
19.112,-9.01670
19.120,-9.11586
19.128,-9.19378
19.136,-9.25331
19.144,-9.29894
19.152,-9.33629
19.160,-9.37137
19.168,-9.40981
19.176,-9.45609
19.184,-9.51310
19.192,-9.58184
19.200,-9.66157
19.208,-9.75016
19.216,-9.84452
19.224,-9.94125
19.232,-10.03708
19.240,-10.12940
19.248,-10.21655
19.256,-10.29794
19.264,-10.37392
19.272,-10.44549
19.280,-10.51386
19.288,-10.57991
19.296,-10.64384
19.304,-10.70475
19.312,-10.76064
19.320,-10.80853
19.328,-10.84493
19.336,-10.86649
19.344,-10.87074
19.352,-10.85682
19.360,-10.82583
19.368,-10.78092
19.376,-10.72694
19.384,-10.66967
19.392,-10.61473
19.400,-10.56638
19.408,-10.52619
19.416,-10.49189
19.424,-10.45648
19.432,-10.40787
19.440,-10.32897
19.448,-10.19834
19.456,-9.99139
19.464,-9.68195
19.472,-9.24405
19.480,-8.65383
19.488,-7.89135
19.496,-6.94210
19.504,-5.79827
19.512,-4.45951
19.520,-2.93333
19.528,-1.23509
19.536,0.61243
19.544,2.57976
19.552,4.63181
19.560,6.72932
19.568,8.83052
19.576,10.89305
19.584,12.87593
19.592,14.74147
19.600,16.45713
19.608,17.99693
19.616,19.34262
19.624,20.48412
19.632,21.41945
19.640,22.15404
19.648,22.69940
19.656,23.07146
19.664,23.28869
19.672,23.37027
19.680,23.33439
19.688,23.19695
19.696,22.97070
19.704,22.66473
19.712,22.28454
19.720,21.83240
19.728,21.30818
19.736,20.71036
19.744,20.03723
19.752,19.28809
19.760,18.46441
19.768,17.57059
19.776,16.61453
19.784,15.60755
19.792,14.56396
19.800,13.50021
19.808,12.43372
19.816,11.38165
19.824,10.35968
19.832,9.38104
19.840,8.45591
19.848,7.59113
19.856,6.79028
19.864,6.05408
19.872,5.38078
19.880,4.76670
19.888,4.20668
19.896,3.69452
19.904,3.22335
19.912,2.78601
19.920,2.37539
19.928,1.98468
19.936,1.60766
19.944,1.23886
19.952,0.87373
19.960,0.50878
19.968,0.14156
19.976,-0.22932
19.984,-0.60414
19.992,-0.98212
20.000,-1.36141
20.008,-1.73911
20.016,-2.11146
20.024,-2.47419
20.032,-2.82295
20.040,-3.15387
20.048,-3.46413
20.056,-3.75235
20.064,-4.01892
20.072,-4.26592
20.080,-4.49689
20.088,-4.71618
20.096,-4.92833
20.104,-5.13733
20.112,-5.34612
20.120,-5.55623
20.128,-5.76773
20.136,-5.97948
20.144,-6.18952
20.152,-6.39568
20.160,-6.59613
20.168,-6.78985
20.176,-6.97683
20.184,-7.15793
20.192,-7.33460
20.200,-7.50832
20.208,-7.68020
20.216,-7.85067
20.224,-8.01932
20.232,-8.18503
20.240,-8.34619
20.248,-8.50101
20.256,-8.64779
20.264,-8.78519
20.272,-8.91245
20.280,-9.02950
20.288,-9.13698
20.296,-9.23621
20.304,-9.32903
20.312,-9.41749
20.320,-9.50360
20.328,-9.58888
20.336,-9.67417
20.344,-9.75941
20.352,-9.84369
20.360,-9.92548
20.368,-10.00303
20.376,-10.07485
20.384,-10.14007
20.392,-10.19879
20.400,-10.25204
20.408,-10.30154
20.416,-10.34933
20.424,-10.39716
20.432,-10.44597
20.440,-10.49549
20.448,-10.54414
20.456,-10.58922
20.464,-10.62745
20.472,-10.65558
20.480,-10.67115
20.488,-10.67304
20.496,-10.66181
20.504,-10.63980
20.512,-10.61079
20.520,-10.57951
20.528,-10.55091
20.536,-10.52928
20.544,-10.51743
20.552,-10.51592
20.560,-10.52242
20.568,-10.53134
20.576,-10.53369
20.584,-10.51714
20.592,-10.46648
20.600,-10.36407
20.608,-10.19062
20.616,-9.92574
20.624,-9.54875
20.632,-9.03926
20.640,-8.37798
20.648,-7.54763
20.656,-6.53405
20.664,-5.32754
20.672,-3.92443
20.680,-2.32852
20.688,-0.55239
20.696,1.38191
20.704,3.44287
20.712,5.59049
20.720,7.77812
20.728,9.95516
20.736,12.07027
20.744,14.07477
20.752,15.92587
20.760,17.58930
20.768,19.04111
20.776,20.26839
20.784,21.26899
20.792,22.05029
20.800,22.62723
20.808,23.01996
20.816,23.25138
20.824,23.34484
20.832,23.32215
20.840,23.20210
20.848,22.99950
20.856,22.72478
20.864,22.38404
20.872,21.97958
20.880,21.51071
20.888,20.97478
20.896,20.36840
20.904,19.68860
20.912,18.93399
20.920,18.10576
20.928,17.20829
20.936,16.24956
20.944,15.24098
20.952,14.19705
20.960,13.13448
20.968,12.07117
20.976,11.02501
20.984,10.01265
20.992,9.04839
21.000,8.14327
21.008,7.30451
21.016,6.53538
21.024,5.83541
21.032,5.20094
21.040,4.62590
21.048,4.10259
21.056,3.62247
21.064,3.17680
21.072,2.75710
21.080,2.35551
21.088,1.96502
21.096,1.57969
21.104,1.19488
21.112,0.80735
21.120,0.41543
21.128,0.01904
21.136,-0.38047
21.144,-0.78052
21.152,-1.17763
21.160,-1.56785
21.168,-1.94716
21.176,-2.31185
21.184,-2.65877
21.192,-2.98552
21.200,-3.29054
21.208,-3.57315
21.216,-3.83360
21.224,-4.07307
21.232,-4.29378
21.240,-4.49895
21.248,-4.69268
21.256,-4.87979
21.264,-5.06546
21.272,-5.25480
21.280,-5.45236
21.288,-5.66159
21.296,-5.88445
21.304,-6.12103
21.312,-6.36952
21.320,-6.62636
21.328,-6.88672
21.336,-7.14506
21.344,-7.39580
21.352,-7.63396
21.360,-7.85554
21.368,-8.05786
21.376,-8.23973
21.384,-8.40141
21.392,-8.54456
21.400,-8.67195
21.408,-8.78714
21.416,-8.89406
21.424,-8.99641
21.432,-9.09727
21.440,-9.19862
21.448,-9.30119
21.456,-9.40444
21.464,-9.50683
21.472,-9.60617
21.480,-9.70009
21.488,-9.78644
21.496,-9.86365
21.504,-9.93090
21.512,-9.98822
21.520,-10.03650
21.528,-10.07734
21.536,-10.11291
21.544,-10.14574
21.552,-10.17839
21.560,-10.21317
21.568,-10.25185
21.576,-10.29542
21.584,-10.34392
21.592,-10.39649
21.600,-10.45149
21.608,-10.50668
21.616,-10.55952
21.624,-10.60737
21.632,-10.64768
21.640,-10.67820
21.648,-10.69723
21.656,-10.70384
21.664,-10.69806
21.672,-10.68103
21.680,-10.65491
21.688,-10.62262
21.696,-10.58739
21.704,-10.55200
21.712,-10.51794
21.720,-10.48441
21.728,-10.44740
21.736,-10.39889
21.744,-10.32644
21.752,-10.21313
21.760,-10.03809
21.768,-9.77745
21.776,-9.40586
21.784,-8.89820
21.792,-8.23156
21.800,-7.38715
21.808,-6.35209
21.816,-5.12082
21.824,-3.69609
21.832,-2.08936
21.840,-0.32062
21.848,1.58230
21.856,3.58505
21.864,5.64837
21.872,7.73001
21.880,9.78679
21.888,11.77661
21.896,13.66048
21.904,15.40425
21.912,16.98011
21.920,18.36770
21.928,19.55466
21.936,20.53664
21.944,21.31680
21.952,21.90478
21.960,22.31536
21.968,22.56689
21.976,22.67951
21.984,22.67353
21.992,22.56773
22.000,22.37804
22.008,22.11649
22.016,21.79056
22.024,21.40313
22.032,20.95301
22.040,20.43596
22.048,19.84623
22.056,19.17842
22.064,18.42927
22.072,17.59930
22.080,16.69387
22.088,15.72370
22.096,14.70446
22.104,13.65575
22.112,12.59943
22.120,11.55757
22.128,10.55033
22.136,9.59410
22.144,8.70022
22.152,7.87448
22.160,7.11729
22.168,6.42464
22.176,5.78935
22.184,5.20252
22.192,4.65493
22.200,4.13814
22.208,3.64521
22.216,3.17106
22.224,2.71247
22.232,2.26787
22.240,1.83686
22.248,1.41980
22.256,1.01719
22.264,0.62928
22.272,0.25577
22.280,-0.10433
22.288,-0.45254
22.296,-0.79063
22.304,-1.12027
22.312,-1.44263
22.320,-1.75821
22.328,-2.06673
22.336,-2.36735
22.344,-2.65892
22.352,-2.94043
22.360,-3.21151
22.368,-3.47279
22.376,-3.72599
22.384,-3.97383
22.392,-4.21958
22.400,-4.46647
22.408,-4.71707
22.416,-4.97278
22.424,-5.23359
22.432,-5.49808
22.440,-5.76361
22.448,-6.02670
22.456,-6.28348
22.464,-6.53012
22.472,-6.76313
22.480,-6.97973
22.488,-7.17806
22.496,-7.35726
22.504,-7.51757
22.512,-7.66017
22.520,-7.78696
22.528,-7.90037
22.536,-8.00301
22.544,-8.09751
22.552,-8.18631
22.560,-8.27161
22.568,-8.35527
22.576,-8.43882
22.584,-8.52349
22.592,-8.61029
22.600,-8.70009
22.608,-8.79368
22.616,-8.89170
22.624,-8.99457
22.632,-9.10221
22.640,-9.21383
22.648,-9.32784
22.656,-9.44181
22.664,-9.55275
22.672,-9.65743
22.680,-9.75285
22.688,-9.83663
22.696,-9.90733
22.704,-9.96473
22.712,-10.00987
22.720,-10.04497
22.728,-10.07313
22.736,-10.09796
22.744,-10.12297
22.752,-10.15109
22.760,-10.18423
22.768,-10.22305
22.776,-10.26689
22.784,-10.31395
22.792,-10.36163
22.800,-10.40700
22.808,-10.44726
22.816,-10.48011
22.824,-10.50405
22.832,-10.51841
22.840,-10.52321
22.848,-10.51887
22.856,-10.50569
22.864,-10.48321
22.872,-10.44948
22.880,-10.40030
22.888,-10.32865
22.896,-10.22430
22.904,-10.07368
22.912,-9.86005
22.920,-9.56410
22.928,-9.16466
22.936,-8.63995
22.944,-7.96900
22.952,-7.13328
22.960,-6.11842
22.968,-4.91588
22.976,-3.52438
22.984,-1.95100
22.992,-0.21177
23.000,1.66827
23.008,3.65583
23.016,5.71075
23.024,7.78809
23.032,9.84080
23.040,11.82264
23.048,13.69102
23.056,15.40957
23.064,16.95010
23.072,18.29374
23.080,19.43126
23.088,20.36254
23.096,21.09530
23.104,21.64325
23.112,22.02407
23.120,22.25717
23.128,22.36180
23.136,22.35530
23.144,22.25207
23.152,22.06293
23.160,21.79506
23.168,21.45236
23.176,21.03618
23.184,20.54629
23.192,19.98187
23.200,19.34259
23.208,18.62948
23.216,17.84555
23.224,16.99611
23.232,16.08894
23.240,15.13408
23.248,14.14353
23.256,13.13087
23.264,12.11071
23.272,11.09812
23.280,10.10803
23.288,9.15453
23.296,8.25021
23.304,7.40545
23.312,6.62784
23.320,5.92166
23.328,5.28766
23.336,4.72313
23.344,4.22220
23.352,3.77639
23.360,3.37536
23.368,3.00783
23.376,2.66246
23.384,2.32871
23.392,1.99766
23.400,1.66246
23.408,1.31874
23.416,0.96457
23.424,0.60024
23.432,0.22788
23.440,-0.14913
23.448,-0.52671
23.456,-0.90064
23.464,-1.26708
23.472,-1.62291
23.480,-1.96597
23.488,-2.29508
23.496,-2.60993
23.504,-2.91089
23.512,-3.19884
23.520,-3.47496
23.528,-3.74064
23.536,-3.99738
23.544,-4.24676
23.552,-4.49034
23.560,-4.72963
23.568,-4.96609
23.576,-5.20102
23.584,-5.43556
23.592,-5.67065
23.600,-5.90695
23.608,-6.14482
23.616,-6.38422
23.624,-6.62462
23.632,-6.86486
23.640,-7.10320
23.648,-7.33733
23.656,-7.56454
23.664,-7.78196
23.672,-7.98681
23.680,-8.17676
23.688,-8.35015
23.696,-8.50622
23.704,-8.64518
23.712,-8.76808
23.720,-8.87668
23.728,-8.97312
23.736,-9.05965
23.744,-9.13827
23.752,-9.21060
23.760,-9.27772
23.768,-9.34023
23.776,-9.39835
23.784,-9.45209
23.792,-9.50142
23.800,-9.54636
23.808,-9.58717
23.816,-9.62443
23.824,-9.65911
23.832,-9.69265
23.840,-9.72676
23.848,-9.76319
23.856,-9.80333
23.864,-9.84777
23.872,-9.89603
23.880,-9.94648
23.888,-9.99656
23.896,-10.04325
23.904,-10.08359
23.912,-10.11530
23.920,-10.13719
23.928,-10.14935
23.936,-10.15319
23.944,-10.15110
23.952,-10.14613
23.960,-10.14140
23.968,-10.13964
23.976,-10.14271
23.984,-10.15126
23.992,-10.16459
24.000,-10.18051
24.008,-10.19521
24.016,-10.20319
24.024,-10.19698
24.032,-10.16691
24.040,-10.10086
24.048,-9.98408
24.056,-9.79929
24.064,-9.52689
24.072,-9.14572
24.080,-8.63410
24.088,-7.97123
24.096,-7.13893
24.104,-6.12350
24.112,-4.91746
24.120,-3.52103
24.128,-1.94307
24.136,-0.20128
24.144,1.67820
24.152,3.66186
24.160,5.71044
24.168,7.78085
24.176,9.82843
24.184,11.80928
24.192,13.68252
24.200,15.41242
24.208,16.97007
24.216,18.33468
24.224,19.49412
24.232,20.44488
24.240,21.19145
24.248,21.74510
24.256,22.12228
24.264,22.34277
24.272,22.42769
24.280,22.39761
24.288,22.27102
24.296,22.06319
24.304,21.78556
24.312,21.44554
24.320,21.04669
24.328,20.58917
24.336,20.07043
24.344,19.48612
24.352,18.83118
24.360,18.10114
24.368,17.29348
24.376,16.40896
24.384,15.45260
24.392,14.43422
24.400,13.36825
24.408,12.27295
24.416,11.16901
24.424,10.07783
24.432,9.01976
24.440,8.01250
24.448,7.06992
24.456,6.20151
24.464,5.41229
24.472,4.70323
24.480,4.07190
24.488,3.51321
24.496,3.02012
24.504,2.58407
24.512,2.19542
24.520,1.84363
24.528,1.51742
24.536,1.20511
24.544,0.89499
24.552,0.57611
24.560,0.23911
24.568,-0.12273
24.576,-0.51275
24.584,-0.93036
24.592,-1.37103
24.600,-1.82686
24.608,-2.28753
24.616,-2.74159
24.624,-3.17783
24.632,-3.58654
24.640,-3.96035
24.648,-4.29472
24.656,-4.58804
24.664,-4.84132
24.672,-5.05771
24.680,-5.24188
24.688,-5.39939
24.696,-5.53610
24.704,-5.65762
24.712,-5.76892
24.720,-5.87413
24.728,-5.97639
24.736,-6.07792
24.744,-6.18013
24.752,-6.28388
24.760,-6.38963
24.768,-6.49783
24.776,-6.60902
24.784,-6.72415
24.792,-6.84464
24.800,-6.97243
24.808,-7.10992
24.816,-7.25977
24.824,-7.42459
24.832,-7.60657
24.840,-7.80710
24.848,-8.02645
24.856,-8.26349
24.864,-8.51566
24.872,-8.77885
24.880,-9.04759
24.888,-9.31506
24.896,-9.57337
24.904,-9.81381
24.912,-10.02729
24.920,-10.20499
24.928,-10.33898
24.936,-10.42303
24.944,-10.45327
24.952,-10.42862
24.960,-10.35112
24.968,-10.22586
24.976,-10.06074
24.984,-9.86602
24.992,-9.65373
25.000,-9.43695
25.008,-9.22899
25.016,-9.04251
25.024,-8.88862
25.032,-8.77600
25.040,-8.71020
25.048,-8.69328
25.056,-8.72366
25.064,-8.79644
25.072,-8.90402
25.080,-9.03693
25.088,-9.18486
25.096,-9.33766
25.104,-9.48630
25.112,-9.62360
25.120,-9.74452
25.128,-9.84609
25.136,-9.92689
25.144,-9.98615
25.152,-10.02264
25.160,-10.03354
25.168,-10.01340
25.176,-9.95344
25.184,-9.84123
25.192,-9.66088
25.200,-9.39364
25.208,-9.01887
25.216,-8.51533
25.224,-7.86266
25.232,-7.04303
25.240,-6.04281
25.248,-4.85410
25.256,-3.47600
25.264,-1.91553
25.272,-0.18817
25.280,1.68217
25.288,3.66376
25.296,5.71824
25.304,7.80241
25.312,9.87051
25.320,11.87684
25.328,13.77845
25.336,15.53760
25.344,17.12386
25.352,18.51540
25.360,19.69960
25.368,20.67286
25.376,21.43972
25.384,22.01150
25.392,22.40443
25.400,22.63770
25.408,22.73142
25.416,22.70483
25.424,22.57488
25.432,22.35524
25.440,22.05581
25.448,21.68281
25.456,21.23918
25.464,20.72535
25.472,20.14031
25.480,19.48266
25.488,18.75172
25.496,17.94855
25.504,17.07664
25.512,16.14246
25.520,15.15562
25.528,14.12872
25.536,13.07691
25.544,12.01706
25.552,10.96671
25.560,9.94295
25.568,8.96114
25.576,8.03397
25.584,7.17072
25.592,6.37682
25.600,5.65380
25.608,4.99948
25.616,4.40852
25.624,3.87313
25.632,3.38397
25.640,2.93119
25.648,2.50528
25.656,2.09793
25.664,1.70252
25.672,1.31432
25.680,0.93045
25.688,0.54947
25.696,0.17094
25.704,-0.20515
25.712,-0.57868
25.720,-0.94950
25.728,-1.31732
25.736,-1.68131
25.744,-2.03975
25.752,-2.38986
25.760,-2.72787
25.768,-3.04952
25.776,-3.35077
25.784,-3.62875
25.792,-3.88259
25.800,-4.11412
25.808,-4.32814
25.816,-4.53227
25.824,-4.73628
25.832,-4.95102
25.840,-5.18705
25.848,-5.45325
25.856,-5.75548
25.864,-6.09549
25.872,-6.47027
25.880,-6.87197
25.888,-7.28831
25.896,-7.70367
25.904,-8.10054
25.912,-8.46133
25.920,-8.77016
25.928,-9.01452
25.936,-9.18644
25.944,-9.28325
25.952,-9.30764
25.960,-9.26731
25.968,-9.17408
25.976,-9.04277
25.984,-8.88982
25.992,-8.73191
26.000,-8.58465
26.008,-8.46147
26.016,-8.37289
26.024,-8.32598
26.032,-8.32435
26.040,-8.36833
26.048,-8.45549
26.056,-8.58122
26.064,-8.73946
26.072,-8.92321
26.080,-9.12499
26.088,-9.33709
26.096,-9.55179
26.104,-9.76138
26.112,-9.95831
26.120,-10.13543
26.128,-10.28634
26.136,-10.40592
26.144,-10.49087
26.152,-10.54014
26.160,-10.55513
26.168,-10.53958
26.176,-10.49909
26.184,-10.44050
26.192,-10.37112
26.200,-10.29808
26.208,-10.22785
26.216,-10.16598
26.224,-10.11707
26.232,-10.08479
26.240,-10.07186
26.248,-10.07988
26.256,-10.10902
26.264,-10.15748
26.272,-10.22096
26.280,-10.29214
26.288,-10.36037
26.296,-10.41157
26.304,-10.42847
26.312,-10.39114
26.320,-10.27765
26.328,-10.06495
26.336,-9.72989
26.344,-9.25021
26.352,-8.60578
26.360,-7.77982
26.368,-6.76013
26.376,-5.54041
26.384,-4.12142
26.392,-2.51191
26.400,-0.72914
26.408,1.20108
26.416,3.24500
26.424,5.36222
26.432,7.50756
26.440,9.63349
26.448,11.69285
26.456,13.64155
26.464,15.44114
26.472,17.06079
26.480,18.47862
26.488,19.68219
26.496,20.66820
26.504,21.44151
26.512,22.01365
26.520,22.40113
26.528,22.62357
26.536,22.70192
26.544,22.65684
26.552,22.50730
26.560,22.26953
26.568,21.95639
26.576,21.57705
26.584,21.13718
26.592,20.63942
26.600,20.08410
26.608,19.47012
26.616,18.79588
26.624,18.06027
26.632,17.26353
26.640,16.40796
26.648,15.49846
26.656,14.54284
26.664,13.55187
26.672,12.53897
26.680,11.51969
26.688,10.51091
26.696,9.52967
26.704,8.59194
26.712,7.71125
26.720,6.89750
26.728,6.15613
26.736,5.48772
26.744,4.88821
26.752,4.34959
26.760,3.86110
26.768,3.41058
26.776,2.98592
26.784,2.57617
26.792,2.17243
26.800,1.76822
26.808,1.35955
26.816,0.94465
26.824,0.52355
26.832,0.09764
26.840,-0.33075
26.848,-0.75868
26.856,-1.18284
26.864,-1.59971
26.872,-2.00570
26.880,-2.39731
26.888,-2.77132
26.896,-3.12505
26.904,-3.45661
26.912,-3.76507
26.920,-4.05068
26.928,-4.31482
26.936,-4.55986
26.944,-4.78893
26.952,-5.00550
26.960,-5.21299
26.968,-5.41436
26.976,-5.61179
26.984,-5.80662
26.992,-5.99935
27.000,-6.18995
27.008,-6.37817
27.016,-6.56386
27.024,-6.74729
27.032,-6.92922
27.040,-7.11087
27.048,-7.29370
27.056,-7.47908
27.064,-7.66793
27.072,-7.86040
27.080,-8.05568
27.088,-8.25200
27.096,-8.44674
27.104,-8.63679
27.112,-8.81894
27.120,-8.99037
27.128,-9.14903
27.136,-9.29402
27.144,-9.42566
27.152,-9.54544
27.160,-9.65566
27.168,-9.75902
27.176,-9.85805
27.184,-9.95465
27.192,-10.04980
27.200,-10.14333
27.208,-10.23408
27.216,-10.32009
27.224,-10.39892
27.232,-10.46802
27.240,-10.52515
27.248,-10.56868
27.256,-10.59791
27.264,-10.61324
27.272,-10.61621
27.280,-10.60934
27.288,-10.59582
27.296,-10.57904
27.304,-10.56212
27.312,-10.54752
27.320,-10.53682
27.328,-10.53073
27.336,-10.52937
27.344,-10.53260
27.352,-10.54042
27.360,-10.55314
27.368,-10.57125
27.376,-10.59501
27.384,-10.62367
27.392,-10.65469
27.400,-10.68288
27.408,-10.69976
27.416,-10.69321
27.424,-10.64750
27.432,-10.54368
27.440,-10.36029
27.448,-10.07451
27.456,-9.66337
27.464,-9.10519
27.472,-8.38109
27.480,-7.47632
27.488,-6.38161
27.496,-5.09412
27.504,-3.61820
27.512,-1.96570
27.520,-0.15596
27.528,1.78468
27.536,3.82373
27.544,5.92381
27.552,8.04408
27.560,10.14191
27.568,12.17473
27.576,14.10187
27.584,15.88643
27.592,17.49711
27.600,18.90975
27.608,20.10853
27.616,21.08660
27.624,21.84609
27.632,22.39730
27.640,22.75716
27.648,22.94728
27.656,22.99157
27.664,22.91394
27.672,22.73621
27.680,22.47655
27.688,22.14840
27.696,21.76017
27.704,21.31548
27.712,20.81397
27.720,20.25256
27.728,19.62684
27.736,18.93266
27.744,18.16749
27.752,17.33165
27.760,16.42900
27.768,15.46731
27.776,14.45812
27.784,13.41602
27.792,12.35775
27.800,11.30086
27.808,10.26246
27.816,9.25800
27.824,8.30035
27.832,7.39918
27.840,6.56080
27.848,5.78832
27.856,5.08206
27.864,4.44014
27.872,3.85906
27.880,3.33424
27.888,2.86032
27.896,2.43138
27.904,2.04097
27.912,1.68199
27.920,1.34663
27.928,1.02646
27.936,0.71271
27.944,0.39677
27.952,0.07091
27.960,-0.27101
27.968,-0.63288
27.976,-1.01588
27.984,-1.41832
27.992,-1.83582
28.000,-2.26176
28.008,-2.68804
28.016,-3.10603
28.024,-3.50746
28.032,-3.88537
28.040,-4.23475
28.048,-4.55302
28.056,-4.84014
28.064,-5.09840
28.072,-5.33198
28.080,-5.54623
28.088,-5.74695
28.096,-5.93963
28.104,-6.12893
28.112,-6.31829
28.120,-6.50972
28.128,-6.70378
28.136,-6.89982
28.144,-7.09619
28.152,-7.29067
28.160,-7.48091
28.168,-7.66486
28.176,-7.84110
28.184,-8.00914
28.192,-8.16949
28.200,-8.32357
28.208,-8.47343
28.216,-8.62130
28.224,-8.76909
28.232,-8.91783
28.240,-9.06738
28.248,-9.21624
28.256,-9.36172
28.264,-9.50031
28.272,-9.62821
28.280,-9.74200
28.288,-9.83918
28.296,-9.91862
28.304,-9.98067
28.312,-10.02709
28.320,-10.06073
28.328,-10.08501
28.336,-10.10351
28.344,-10.11952
28.352,-10.13576
28.360,-10.15438
28.368,-10.17692
28.376,-10.20447
28.384,-10.23766
28.392,-10.27656
28.400,-10.32060
28.408,-10.36844
28.416,-10.41805
28.424,-10.46685
28.432,-10.51212
28.440,-10.55133
28.448,-10.58260
28.456,-10.60498
28.464,-10.61859
28.472,-10.62467
28.480,-10.62533
28.488,-10.62334
28.496,-10.62156
28.504,-10.62233
28.512,-10.62662
28.520,-10.63306
28.528,-10.63708
28.536,-10.63010
28.544,-10.59911
28.552,-10.52661
28.560,-10.39116
28.568,-10.16827
28.576,-9.83187
28.584,-9.35608
28.592,-8.71711
28.600,-7.89537
28.608,-6.87714
28.616,-5.65614
28.624,-4.23436
28.632,-2.62253
28.640,-0.83986
28.648,1.08661
28.656,3.12324
28.664,5.23125
28.672,7.36851
28.680,9.49134
28.688,11.55646
28.696,13.52295
28.704,15.35405
28.712,17.01881
28.720,18.49339
28.728,19.76187
28.736,20.81656
28.744,21.65788
28.752,22.29367
28.760,22.73806
28.768,23.00998
28.776,23.13127
28.784,23.12464
28.792,23.01162
28.800,22.81072
28.808,22.53613
28.816,22.19684
28.824,21.79668
28.832,21.33491
28.840,20.80738
28.848,20.20830
28.856,19.53199
28.864,18.77481
28.872,17.93662
28.880,17.02180
28.888,16.03959
28.896,15.00365
28.904,13.93119
28.912,12.84146
28.920,11.75429
28.928,10.68849
28.936,9.66059
28.944,8.68391
28.952,7.76796
28.960,6.91833
28.968,6.13683
28.976,5.42197
28.984,4.76961
28.992,4.17372
29.000,3.62726
29.008,3.12293
29.016,2.65379
29.024,2.21360
29.032,1.79693
29.040,1.39898
29.048,1.01531
29.056,0.64154
29.064,0.27329
29.072,-0.09377
29.080,-0.46352
29.088,-0.83891
29.096,-1.22141
29.104,-1.61059
29.112,-2.00400
29.120,-2.39733
29.128,-2.78496
29.136,-3.16060
29.144,-3.51809
29.152,-3.85208
29.160,-4.15862
29.168,-4.43557
29.176,-4.68271
29.184,-4.90179
29.192,-5.09633
29.200,-5.27133
29.208,-5.43283
29.216,-5.58743
29.224,-5.74171
29.232,-5.90157
29.240,-6.07165
29.248,-6.25477
29.256,-6.45173
29.264,-6.66128
29.272,-6.88041
29.280,-7.10490
29.288,-7.32984
29.296,-7.55025
29.304,-7.76149
29.312,-7.95961
29.320,-8.14157
29.328,-8.30533
29.336,-8.45002
29.344,-8.57589
29.352,-8.68443
29.360,-8.77823
29.368,-8.86079
29.376,-8.93629
29.384,-9.00912
29.392,-9.08349
29.400,-9.16294
29.408,-9.25002
29.416,-9.34599
29.424,-9.45075
29.432,-9.56286
29.440,-9.67977
29.448,-9.79804
29.456,-9.91374
29.464,-10.02276
29.472,-10.12117
29.480,-10.20559
29.488,-10.27351
29.496,-10.32361
29.504,-10.35604
29.512,-10.37251
29.520,-10.37629
29.528,-10.37187
29.536,-10.36441
29.544,-10.35903
29.552,-10.36003
29.560,-10.37031
29.568,-10.39091
29.576,-10.42097
29.584,-10.45803
29.592,-10.49850
29.600,-10.53840
29.608,-10.57397
29.616,-10.60218
29.624,-10.62097
29.632,-10.62910
29.640,-10.62558
29.648,-10.60885
29.656,-10.57569
29.664,-10.52009
29.672,-10.43228
29.680,-10.29818
29.688,-10.09940
29.696,-9.81391
29.704,-9.41735
29.712,-8.88484
29.720,-8.19314
29.728,-7.32282
29.736,-6.26032
29.744,-4.99973
29.752,-3.54389
29.760,-1.90503
29.768,-0.10460
29.776,1.82747
29.784,3.85412
29.792,5.93296
29.800,8.01851
29.808,10.06458
29.816,12.02681
29.824,13.86502
29.832,15.54524
29.840,17.04134
29.848,18.33602
29.856,19.42112
29.864,20.29730
29.872,20.97308
29.880,21.46328
29.888,21.78719
29.896,21.96654
29.904,22.02344
29.912,21.97855
29.920,21.84964
29.928,21.65052
29.936,21.39049
29.944,21.07434
29.952,20.70276
29.960,20.27325
29.968,19.78120
29.976,19.22121
29.984,18.58846
29.992,17.88000
30.000,17.09589
30.008,16.23996
30.016,15.32021
30.024,14.34861
30.032,13.34047
30.040,12.31332
30.048,11.28564
30.056,10.27542
30.064,9.29887
30.072,8.36945
30.080,7.49723
30.088,6.68870
30.096,5.94697
30.104,5.27215
30.112,4.66191
30.120,4.11195
30.128,3.61646
30.136,3.16840
30.144,2.75977
30.152,2.38182
30.160,2.02533
30.168,1.68093
30.176,1.33964
30.184,0.99343
30.192,0.63587
30.200,0.26275
30.208,-0.12741
30.216,-0.53313
30.224,-0.95013
30.232,-1.37183
30.240,-1.79018
30.248,-2.19674
30.256,-2.58373
30.264,-2.94499
30.272,-3.27671
30.280,-3.57777
30.288,-3.84973
30.296,-4.09641
30.304,-4.32324
30.312,-4.53634
30.320,-4.74164
30.328,-4.94412
30.336,-5.14728
30.344,-5.35298
30.352,-5.56150
30.360,-5.77195
30.368,-5.98279
30.376,-6.19234
30.384,-6.39919
30.392,-6.60245
30.400,-6.80170
30.408,-6.99678
30.416,-7.18752
30.424,-7.37338
30.432,-7.55328
30.440,-7.72559
30.448,-7.88830
30.456,-8.03939
30.464,-8.17729
30.472,-8.30134
30.480,-8.41201
30.488,-8.51101
30.496,-8.60108
30.504,-8.68565
30.512,-8.76833
30.520,-8.85245
30.528,-8.94057
30.536,-9.03420
30.544,-9.13363
30.552,-9.23790
30.560,-9.34494
30.568,-9.45178
30.576,-9.55491
30.584,-9.65066
30.592,-9.73563
30.600,-9.80709
30.608,-9.86329
30.616,-9.90372
30.624,-9.92916
30.632,-9.94150
30.640,-9.94357
30.648,-9.93868
30.656,-9.93034
30.664,-9.92189
30.672,-9.91625
30.680,-9.91571
30.688,-9.92180
30.696,-9.93520
30.704,-9.95570
30.712,-9.98232
30.720,-10.01356
30.728,-10.04761
30.736,-10.08271
30.744,-10.11735
30.752,-10.15032
30.760,-10.18058
30.768,-10.20685
30.776,-10.22703
30.784,-10.23733
30.792,-10.23137
30.800,-10.19929
30.808,-10.12710
30.816,-9.99654
30.824,-9.78554
30.832,-9.46936
30.840,-9.02236
30.848,-8.42015
30.856,-7.64188
30.864,-6.67247
30.872,-5.50446
30.880,-4.13931
30.888,-2.58810
30.896,-0.87136
30.904,0.98180
30.912,2.93522
30.920,4.94783
30.928,6.97597
30.936,8.97581
30.944,10.90570
30.952,12.72820
30.960,14.41184
30.968,15.93243
30.976,17.27382
30.984,18.42806
30.992,19.39493
31.000,20.18084
31.008,20.79733
31.016,21.25933
31.024,21.58339
31.032,21.78597
31.040,21.88213
31.048,21.88440
31.056,21.80213
31.064,21.64119
31.072,21.40405
31.080,21.09026
31.088,20.69713
31.096,20.22081
31.104,19.65734
31.112,19.00385
31.120,18.25965
31.128,17.42715
31.136,16.51245
31.144,15.52558
31.152,14.48028
31.160,13.39344
31.168,12.28411
31.176,11.17233
31.184,10.07781
31.192,9.01868
31.200,8.01035
31.208,7.06479
31.216,6.19006
31.224,5.39032
31.232,4.66612
31.240,4.01491
31.248,3.43171
31.256,2.90978
31.264,2.44135
31.272,2.01817
31.280,1.63205
31.288,1.27525
31.296,0.94073
31.304,0.62238
31.312,0.31511
31.320,0.01499
31.328,-0.28075
31.336,-0.57373
31.344,-0.86445
31.352,-1.15249
31.360,-1.43666
31.368,-1.71530
31.376,-1.98661
31.384,-2.24903
31.392,-2.50161
31.400,-2.74436
31.408,-2.97840
31.416,-3.20603
31.424,-3.43049
31.432,-3.65567
31.440,-3.88563
31.448,-4.12410
31.456,-4.37402
31.464,-4.63710
31.472,-4.91351
31.480,-5.20174
31.488,-5.49865
31.496,-5.79981
31.504,-6.09989
31.512,-6.39326
31.520,-6.67461
31.528,-6.93939
31.536,-7.18424
31.544,-7.40727
31.552,-7.60802
31.560,-7.78747
31.568,-7.94768
31.576,-8.09151
31.584,-8.22215
31.592,-8.34276
31.600,-8.45602
31.608,-8.56388
31.616,-8.66731
31.624,-8.76625
31.632,-8.85978
31.640,-8.94641
31.648,-9.02451
31.656,-9.09275
31.664,-9.15045
31.672,-9.19778
31.680,-9.23580
31.688,-9.26629
31.696,-9.29163
31.704,-9.31449
31.712,-9.33759
31.720,-9.36347
31.728,-9.39417
31.736,-9.43101
31.744,-9.47439
31.752,-9.52363
31.760,-9.57709
31.768,-9.63234
31.776,-9.68650
31.784,-9.73668
31.792,-9.78033
31.800,-9.81560
31.808,-9.84151
31.816,-9.85807
31.824,-9.86621
31.832,-9.86766
31.840,-9.86483
31.848,-9.86062
31.856,-9.85809
31.864,-9.86013
31.872,-9.86896
31.880,-9.88559
31.888,-9.90913
31.896,-9.93622
31.904,-9.96044
31.912,-9.97200
31.920,-9.95754
31.928,-9.90032
31.936,-9.78070
31.944,-9.57691
31.952,-9.26608
31.960,-8.82552
31.968,-8.23419
31.976,-7.47417
31.984,-6.53227
31.992,-5.40135
32.000,-4.08152
32.008,-2.58094
32.016,-0.91612
32.024,0.88827
32.032,2.80023
32.040,4.78173
32.048,6.79056
32.056,8.78239
32.064,10.71323
32.072,12.54186
32.080,14.23208
32.088,15.75471
32.096,17.08898
32.104,18.22322
32.112,19.15490
32.120,19.88978
32.128,20.44048
32.136,20.82445
32.144,21.06180
32.152,21.17301
32.160,21.17702
32.168,21.08966
32.176,20.92274
32.184,20.68384
32.192,20.37660
32.200,20.00166
32.208,19.55768
32.216,19.04271
32.224,18.45531
32.232,17.79567
32.240,17.06635
32.248,16.27285
32.256,15.42368
32.264,14.53015
32.272,13.60584
32.280,12.66589
32.288,11.72610
32.296,10.80210
32.304,9.90836
32.312,9.05726
32.320,8.25829
32.328,7.51731
32.336,6.83625
32.344,6.21304
32.352,5.64208
32.360,5.11501
32.368,4.62179
32.376,4.15191
32.384,3.69552
32.392,3.24435
32.400,2.79243
32.408,2.33630
32.416,1.87509
32.424,1.41015
32.432,0.94465
32.440,0.48288
32.448,0.02964
32.456,-0.41038
32.464,-0.83313
32.472,-1.23547
32.480,-1.61539
32.488,-1.97206
32.496,-2.30575
32.504,-2.61764
32.512,-2.90967
32.520,-3.18420
32.528,-3.44384
32.536,-3.69128
32.544,-3.92911
32.552,-4.15984
32.560,-4.38571
32.568,-4.60861
32.576,-4.82994
32.584,-5.05053
32.592,-5.27064
32.600,-5.49002
32.608,-5.70796
32.616,-5.92344
32.624,-6.13516
32.632,-6.34162
32.640,-6.54120
32.648,-6.73219
32.656,-6.91287
32.664,-7.08159
32.672,-7.23691
32.680,-7.37784
32.688,-7.50402
32.696,-7.61605
32.704,-7.71554
32.712,-7.80508
32.720,-7.88797
32.728,-7.96780
32.736,-8.04795
32.744,-8.13108
32.752,-8.21888
32.760,-8.31197
32.768,-8.41002
32.776,-8.51205
32.784,-8.61672
32.792,-8.72265
32.800,-8.82855
32.808,-8.93332
32.816,-9.03610
32.824,-9.13620
32.832,-9.23314
32.840,-9.32659
32.848,-9.41639
32.856,-9.50254
32.864,-9.58521
32.872,-9.66465
32.880,-9.74117
32.888,-9.81493
32.896,-9.88573
32.904,-9.95283
32.912,-10.01478
32.920,-10.06933
32.928,-10.11366
32.936,-10.14479
32.944,-10.16010
32.952,-10.15802
32.960,-10.13855
32.968,-10.10354
32.976,-10.05661
32.984,-10.00270
32.992,-9.94724
33.000,-9.89520
33.008,-9.84988
33.016,-9.81193
33.024,-9.77844
33.032,-9.74248
33.040,-9.69308
33.048,-9.61552
33.056,-9.49211
33.064,-9.30307
33.072,-9.02767
33.080,-8.64527
33.088,-8.13653
33.096,-7.48447
33.104,-6.67550
33.112,-5.70048
33.120,-4.55555
33.128,-3.24290
33.136,-1.77123
33.144,-0.15601
33.152,1.58055
33.160,3.41001
33.168,5.29854
33.176,7.20829
33.184,9.09919
33.192,10.93117
33.200,12.66647
33.208,14.27201
33.216,15.72131
33.224,16.99577
33.232,18.08523
33.240,18.98770
33.248,19.70835
33.256,20.25797
33.264,20.65111
33.272,20.90419
33.280,21.03378
33.288,21.05528
33.296,20.98193
33.304,20.82433
33.312,20.59018
33.320,20.28446
33.328,19.90975
33.336,19.46687
33.344,18.95569
33.352,18.37591
33.360,17.72792
33.368,17.01348
33.376,16.23618
33.384,15.40174
33.392,14.51796
33.400,13.59453
33.408,12.64255
33.416,11.67408
33.424,10.70161
33.432,9.73758
33.440,8.79403
33.448,7.88225
33.456,7.01246
33.464,6.19342
33.472,5.43214
33.480,4.73343
33.488,4.09968
33.496,3.53068
33.504,3.02365
33.512,2.57351
33.520,2.17326
33.528,1.81458
33.536,1.48846
33.544,1.18578
33.552,0.89788
33.560,0.61698
33.568,0.33647
33.576,0.05115
33.584,-0.24267
33.592,-0.54703
33.600,-0.86239
33.608,-1.18772
33.616,-1.52078
33.624,-1.85841
33.632,-2.19698
33.640,-2.53265
33.648,-2.86175
33.656,-3.18101
33.664,-3.48772
33.672,-3.77991
33.680,-4.05645
33.688,-4.31712
33.696,-4.56252
33.704,-4.79394
33.712,-5.01314
33.720,-5.22206
33.728,-5.42258
33.736,-5.61636
33.744,-5.80465
33.752,-5.98825
33.760,-6.16745
33.768,-6.34208
33.776,-6.51164
33.784,-6.67551
33.792,-6.83326
33.800,-6.98502
33.808,-7.13163
33.816,-7.27480
33.824,-7.41684
33.832,-7.56022
33.840,-7.70704
33.848,-7.85838
33.856,-8.01390
33.864,-8.17167
33.872,-8.32834
33.880,-8.47956
33.888,-8.62060
33.896,-8.74706
33.904,-8.85549
33.912,-8.94392
33.920,-9.01210
33.928,-9.06158
33.936,-9.09547
33.944,-9.11807
33.952,-9.13427
33.960,-9.14888
33.968,-9.16604
33.976,-9.18874
33.984,-9.21856
33.992,-9.25570
34.000,-9.29923
34.008,-9.34747
34.016,-9.39842
34.024,-9.45022
34.032,-9.50141
34.040,-9.55110
34.048,-9.59900
34.056,-9.64524
34.064,-9.69011
34.072,-9.73380
34.080,-9.77614
34.088,-9.81649
34.096,-9.85378
34.104,-9.88665
34.112,-9.91364
34.120,-9.93337
34.128,-9.94462
34.136,-9.94621
34.144,-9.93670
34.152,-9.91380
34.160,-9.87357
34.168,-9.80968
34.176,-9.71264
34.184,-9.56942
34.192,-9.36348
34.200,-9.07532
34.208,-8.68354
34.216,-8.16643
34.224,-7.50377
34.232,-6.67873
34.240,-5.67971
34.248,-4.50170
34.256,-3.14732
34.264,-1.62720
34.272,0.04010
34.280,1.82871
34.288,3.70654
34.296,5.63669
34.304,7.57922
34.312,9.49317
34.320,11.33872
34.328,13.07930
34.336,14.68349
34.344,16.12651
34.352,17.39123
34.360,18.46842
34.368,19.35653
34.376,20.06074
34.384,20.59163
34.392,20.96359
34.400,21.19306
34.408,21.29686
34.416,21.29078
34.424,21.18850
34.432,21.00087
34.440,20.73565
34.448,20.39755
34.456,19.98872
34.464,19.50941
34.472,18.95887
34.480,18.33635
34.488,17.64206
34.496,16.87808
34.504,16.04893
34.512,15.16197
34.520,14.22730
34.528,13.25727
34.536,12.26578
34.544,11.26732
34.552,10.27610
34.560,9.30526
34.568,8.36635
34.576,7.46908
34.584,6.62125
34.592,5.82885
34.600,5.09625
34.608,4.42625
34.616,3.82008
34.624,3.27727
34.632,2.79546
34.640,2.37016
34.648,1.99463
34.656,1.65985
34.664,1.35488
34.672,1.06740
34.680,0.78463
34.688,0.49447
34.696,0.18672
34.704,-0.14597
34.712,-0.50730
34.720,-0.89711
34.728,-1.31150
34.736,-1.74332
34.744,-2.18301
34.752,-2.61950
34.760,-3.04128
34.768,-3.43730
34.776,-3.79789
34.784,-4.11537
34.792,-4.38461
34.800,-4.60329
34.808,-4.77204
34.816,-4.89437
34.824,-4.97631
34.832,-5.02599
34.840,-5.05299
34.848,-5.06762
34.856,-5.08008
34.864,-5.09974
34.872,-5.13437
34.880,-5.18972
34.888,-5.26921
34.896,-5.37411
34.904,-5.50379
34.912,-5.65637
34.920,-5.82926
34.928,-6.01975
34.936,-6.22536
34.944,-6.44397
34.952,-6.67377
34.960,-6.91294
34.968,-7.15942
34.976,-7.41061
34.984,-7.66330
34.992,-7.91374
35.000,-8.15789
35.008,-8.39177
35.016,-8.61177
35.024,-8.81506
35.032,-8.99967
35.040,-9.16464
35.048,-9.30997
35.056,-9.43653
35.064,-9.54585
35.072,-9.63995
35.080,-9.72110
35.088,-9.79159
35.096,-9.85350
35.104,-9.90856
35.112,-9.95797
35.120,-10.00235
35.128,-10.04167
35.136,-10.07530
35.144,-10.10204
35.152,-10.12021
35.160,-10.12787
35.168,-10.12309
35.176,-10.10424
35.184,-10.07044
35.192,-10.02190
35.200,-9.96024
35.208,-9.88861
35.216,-9.81160
35.224,-9.73490
35.232,-9.66471
35.240,-9.60704
35.248,-9.56679
35.256,-9.54694
35.264,-9.54775
35.272,-9.56610
35.280,-9.59515
35.288,-9.62416
35.296,-9.63863
35.304,-9.62062
35.312,-9.54927
35.320,-9.40156
35.328,-9.15324
35.336,-8.77996
35.344,-8.25863
35.352,-7.56887
35.360,-6.69454
35.368,-5.62527
35.376,-4.35795
35.384,-2.89792
35.392,-1.25980
35.400,0.53236
35.408,2.44568
35.416,4.43987
35.424,6.46938
35.432,8.48615
35.440,10.44250
35.448,12.29417
35.456,14.00292
35.464,15.53867
35.472,16.88085
35.480,18.01896
35.488,18.95237
35.496,19.68916
35.504,20.24448
35.512,20.63836
35.520,20.89328
35.528,21.03182
35.536,21.07449
35.544,21.03812
35.552,20.93470
35.560,20.77090
35.568,20.54827
35.576,20.26395
35.584,19.91190
35.592,19.48445
35.600,18.97412
35.608,18.37531
35.616,17.68584
35.624,16.90806
35.632,16.04930
35.640,15.12178
35.648,14.14187
35.656,13.12887
35.664,12.10351
35.672,11.08640
35.680,10.09648
35.688,9.14974
35.696,8.25826
35.704,7.42966
35.712,6.66701
35.720,5.96924
35.728,5.33184
35.736,4.74783
35.744,4.20892
35.752,3.70645
35.760,3.23233
35.768,2.77964
35.776,2.34308
35.784,1.91907
35.792,1.50574
35.800,1.10273
35.808,0.71090
35.816,0.33188
35.824,-0.03243
35.832,-0.38041
35.840,-0.71120
35.848,-1.02510
35.856,-1.32373
35.864,-1.61002
35.872,-1.88788
35.880,-2.16175
35.888,-2.43599
35.896,-2.71433
35.904,-2.99928
35.912,-3.29179
35.920,-3.59108
35.928,-3.89470
35.936,-4.19887
35.944,-4.49899
35.952,-4.79029
35.960,-5.06850
35.968,-5.33053
35.976,-5.57490
35.984,-5.80198
35.992,-6.01387
36.000,-6.21407
36.008,-6.40694
36.016,-6.59700
36.024,-6.78828
36.032,-6.98368
36.040,-7.18459
36.048,-7.39065
36.056,-7.59990
36.064,-7.80908
36.072,-8.01413
36.080,-8.21077
36.088,-8.39512
36.096,-8.56411
36.104,-8.71586
36.112,-8.84979
36.120,-8.96649
36.128,-9.06746
36.136,-9.15468
36.144,-9.23026
36.152,-9.29606
36.160,-9.35354
36.168,-9.40378
36.176,-9.44764
36.184,-9.48597
36.192,-9.51991
36.200,-9.55098
36.208,-9.58114
36.216,-9.61264
36.224,-9.64772
36.232,-9.68830
36.240,-9.73555
36.248,-9.78962
36.256,-9.84937
36.264,-9.91234
36.272,-9.97496
36.280,-10.03297
36.288,-10.08194
36.296,-10.11791
36.304,-10.13799
36.312,-10.14072
36.320,-10.12642
36.328,-10.09714
36.336,-10.05657
36.344,-10.00959
36.352,-9.96172
36.360,-9.91841
36.368,-9.88430
36.376,-9.86245
36.384,-9.85369
36.392,-9.85597
36.400,-9.86396
36.408,-9.86872
36.416,-9.85756
36.424,-9.81420
36.432,-9.71914
36.440,-9.55034
36.448,-9.28418
36.456,-8.89660
36.464,-8.36448
36.472,-7.66715
36.480,-6.78799
36.488,-5.71598
36.496,-4.44712
36.504,-2.98560
36.512,-1.34454
36.520,0.45381
36.528,2.37854
36.536,4.39129
36.544,6.44811
36.552,8.50198
36.560,10.50564
36.568,12.41459
36.576,14.18987
36.584,15.80039
36.592,17.22443
36.600,18.45024
36.608,19.47567
36.616,20.30688
36.624,20.95646
36.632,21.44114
36.640,21.77949
36.648,21.98973
36.656,22.08809
36.664,22.08760
36.672,21.99747
36.680,21.82305
36.688,21.56629
36.696,21.22656
36.704,20.80180
36.712,20.28974
36.720,19.68910
36.728,19.00058
36.736,18.22755
36.744,17.37640
36.752,16.45657
36.760,15.48028
36.768,14.46200
36.776,13.41785
36.784,12.36474
36.792,11.31956
36.800,10.29830
36.808,9.31526
36.816,8.38238
36.824,7.50883
36.832,6.70072
36.840,5.96115
36.848,5.29027
36.856,4.68555
36.864,4.14209
36.872,3.65292
36.880,3.20948
36.888,2.80212
36.896,2.42083
36.904,2.05594
36.912,1.69888
36.920,1.34279
36.928,0.98287
36.936,0.61653
36.944,0.24328
36.952,-0.13557
36.960,-0.51742
36.968,-0.89883
36.976,-1.27606
36.984,-1.64559
36.992,-2.00447
37.000,-2.35067
37.008,-2.68318
37.016,-3.00207
37.024,-3.30830
37.032,-3.60352
37.040,-3.88978
37.048,-4.16931
37.056,-4.44432
37.064,-4.71683
37.072,-4.98851
37.080,-5.26055
37.088,-5.53343
37.096,-5.80681
37.104,-6.07944
37.112,-6.34920
37.120,-6.61335
37.128,-6.86893
37.136,-7.11322
37.144,-7.34417
37.152,-7.56079
37.160,-7.76317
37.168,-7.95245
37.176,-8.13043
37.184,-8.29914
37.192,-8.46038
37.200,-8.61533
37.208,-8.76434
37.216,-8.90691
37.224,-9.04181
37.232,-9.16746
37.240,-9.28232
37.248,-9.38530
37.256,-9.47610
37.264,-9.55534
37.272,-9.62446
37.280,-9.68550
37.288,-9.74067
37.296,-9.79200
37.304,-9.84109
37.312,-9.88901
37.320,-9.93631
37.328,-9.98322
37.336,-10.02982
37.344,-10.07626
37.352,-10.12288
37.360,-10.17016
37.368,-10.21862
37.376,-10.26859
37.384,-10.31998
37.392,-10.37216
37.400,-10.42390
37.408,-10.47349
37.416,-10.51893
37.424,-10.55820
37.432,-10.58956
37.440,-10.61177
37.448,-10.62425
37.456,-10.62718
37.464,-10.62144
37.472,-10.60847
37.480,-10.58989
37.488,-10.56701
37.496,-10.54016
37.504,-10.50794
37.512,-10.46649
37.520,-10.40885
37.528,-10.32447
37.536,-10.19905
37.544,-10.01464
37.552,-9.75031
37.560,-9.38312
37.568,-8.88962
37.576,-8.24765
37.584,-7.43819
37.592,-6.44717
37.600,-5.26694
37.608,-3.89731
37.616,-2.34604
37.624,-0.62899
37.632,1.23026
37.640,3.20107
37.648,5.24678
37.656,7.32604
37.664,9.39458
37.672,11.40728
37.680,13.32049
37.688,15.09446
37.696,16.69560
37.704,18.09845
37.712,19.28695
37.720,20.25504
37.728,21.00637
37.736,21.55312
37.744,21.91419
37.752,22.11279
37.760,22.17388
37.768,22.12155
37.776,21.97687
37.784,21.75627
37.792,21.47068
37.800,21.12555
37.808,20.72146
37.816,20.25535
37.824,19.72209
37.832,19.11607
37.840,18.43286
37.848,17.67052
37.856,16.83063
37.864,15.91895
37.872,14.94551
37.880,13.92440
37.888,12.87299
37.896,11.81083
37.904,10.75814
37.912,9.73425
37.920,8.75602
37.928,7.83661
37.936,6.98465
37.944,6.20400
37.952,5.49411
37.960,4.85082
37.968,4.26750
37.976,3.73632
37.984,3.24937
37.992,2.79941
38.000,2.38026
38.008,1.98684
38.016,1.61483
38.024,1.26028
38.032,0.91931
38.040,0.58790
38.048,0.26205
38.056,-0.06191
38.064,-0.38683
38.072,-0.71438
38.080,-1.04485
38.088,-1.37728
38.096,-1.70977
38.104,-2.03997
38.112,-2.36556
38.120,-2.68456
38.128,-2.99565
38.136,-3.29814
38.144,-3.59199
38.152,-3.87758
38.160,-4.15551
38.168,-4.42637
38.176,-4.69052
38.184,-4.94794
38.192,-5.19824
38.200,-5.44072
38.208,-5.67463
38.216,-5.89942
38.224,-6.11511
38.232,-6.32238
38.240,-6.52267
38.248,-6.71803
38.256,-6.91085
38.264,-7.10337
38.272,-7.29735
38.280,-7.49360
38.288,-7.69179
38.296,-7.89035
38.304,-8.08662
38.312,-8.27718
38.320,-8.45827
38.328,-8.62642
38.336,-8.77895
38.344,-8.91446
38.352,-9.03316
38.360,-9.13687
38.368,-9.22891
38.376,-9.31357
38.384,-9.39563
38.392,-9.47965
38.400,-9.56938
38.408,-9.66720
38.416,-9.77368
38.424,-9.88739
38.432,-10.00490
38.440,-10.12119
38.448,-10.23020
38.456,-10.32569
38.464,-10.40206
38.472,-10.45513
38.480,-10.48273
38.488,-10.48496
38.496,-10.46424
38.504,-10.42504
38.512,-10.37342
38.520,-10.31646
38.528,-10.26150
38.536,-10.21540
38.544,-10.18379
38.552,-10.17045
38.560,-10.17697
38.568,-10.20253
38.576,-10.24401
38.584,-10.29625
38.592,-10.35236
38.600,-10.40418
38.608,-10.44270
38.616,-10.45833
38.624,-10.44116
38.632,-10.38099
38.640,-10.26727
38.648,-10.08894
38.656,-9.83418
38.664,-9.49015
38.672,-9.04290
38.680,-8.47755
38.688,-7.77875
38.696,-6.93166
38.704,-5.92336
38.712,-4.74453
38.720,-3.39137
38.728,-1.86726
38.736,-0.18405
38.744,1.63742
38.752,3.56772
38.760,5.57013
38.768,7.60273
38.776,9.62097
38.784,11.58044
38.792,13.43943
38.800,15.16124
38.808,16.71592
38.816,18.08151
38.824,19.24462
38.832,20.20045
38.840,20.95224
38.848,21.51027
38.856,21.89042
38.864,22.11229
38.872,22.19727
38.880,22.16651
38.888,22.03905
38.896,21.83043
38.904,21.55165
38.912,21.20882
38.920,20.80339
38.928,20.33298
38.936,19.79272
38.944,19.17703
38.952,18.48139
38.960,17.70400
38.968,16.84706
38.976,15.91735
38.984,14.92629
38.992,13.88929
39.000,12.82458
39.008,11.75174
39.016,10.69016
39.024,9.65761
39.032,8.66917
39.040,7.73659
39.048,6.86805
39.056,6.06825
39.064,5.33878
39.072,4.67850
39.080,4.08406
39.088,3.55031
39.096,3.07079
39.104,2.63808
39.112,2.24423
39.120,1.88105
39.128,1.54043
39.136,1.21473
39.144,0.89698
39.152,0.58128
39.160,0.26302
39.168,-0.06083
39.176,-0.39168
39.184,-0.72925
39.192,-1.07192
39.200,-1.41705
39.208,-1.76155
39.216,-2.10231
39.224,-2.43663
39.232,-2.76247
39.240,-3.07855
39.248,-3.38440
39.256,-3.68024
39.264,-3.96682
39.272,-4.24520
39.280,-4.51658
39.288,-4.78206
39.296,-5.04266
39.304,-5.29923
39.312,-5.55256
39.320,-5.80343
39.328,-6.05261
39.336,-6.30082
39.344,-6.54855
39.352,-6.79590
39.360,-7.04233
39.368,-7.28654
39.376,-7.52645
39.384,-7.75923
39.392,-7.98159
39.400,-8.19014
39.408,-8.38180
39.416,-8.55430
39.424,-8.70648
39.432,-8.83863
39.440,-8.95250
39.448,-9.05115
39.456,-9.13863
39.464,-9.21941
39.472,-9.29790
39.480,-9.37791
39.488,-9.46232
39.496,-9.55287
39.504,-9.65012
39.512,-9.75348
39.520,-9.86131
39.528,-9.97112
39.536,-10.07970
39.544,-10.18352
39.552,-10.27898
39.560,-10.36286
39.568,-10.43276
39.576,-10.48742
39.584,-10.52694
39.592,-10.55278
39.600,-10.56746
39.608,-10.57409
39.616,-10.57578
39.624,-10.57512
39.632,-10.57385
39.640,-10.57278
39.648,-10.57197
39.656,-10.57106
39.664,-10.56964
39.672,-10.56752
39.680,-10.56485
39.688,-10.56193
39.696,-10.55893
39.704,-10.55538
39.712,-10.54965
39.720,-10.53850
39.728,-10.51668
39.736,-10.47665
39.744,-10.40849
39.752,-10.29983
39.760,-10.13607
39.768,-9.90066
39.776,-9.57566
39.784,-9.14253
39.792,-8.58306
39.800,-7.88049
39.808,-7.02060
39.816,-5.99284
39.824,-4.79132
39.832,-3.41573
39.840,-1.87213
39.848,-0.17354
39.856,1.65979
39.864,3.60052
39.872,5.61488
39.880,7.66384
39.888,9.70495
39.896,11.69454
39.904,13.59020
39.912,15.35332
39.920,16.95131
39.928,18.35946
39.936,19.56208
39.944,20.55285
39.952,21.33444
39.960,21.91731
39.968,22.31783
39.976,22.55617
39.984,22.65388
39.992,22.63173
40.000,22.50784
40.008,22.29650
40.016,22.00751
40.024,21.64623
40.032,21.21422
40.040,20.71021
40.048,20.13145
40.056,19.47513
40.064,18.73983
40.072,17.92673
40.080,17.04057
40.088,16.09010
40.096,15.08801
40.104,14.05025
40.112,12.99489
40.120,11.94066
40.128,10.90539
40.136,9.90459
40.144,8.95046
40.152,8.05132
40.160,7.21162
40.168,6.43234
40.176,5.71175
40.184,5.04623
40.192,4.43109
40.200,3.86131
40.208,3.33208
40.216,2.83912
40.224,2.37878
40.232,1.94797
40.240,1.54384
40.248,1.16344
40.256,0.80340
40.264,0.45974
40.272,0.12787
40.280,-0.19716
40.288,-0.52026
40.296,-0.84578
40.304,-1.17698
40.312,-1.51566
40.320,-1.86196
40.328,-2.21446
40.336,-2.57044
40.344,-2.92628
40.352,-3.27795
40.360,-3.62147
40.368,-3.95333
40.376,-4.27075
40.384,-4.57196
40.392,-4.85617
40.400,-5.12355
40.408,-5.37490
40.416,-5.61147
40.424,-5.83463
40.432,-6.04571
40.440,-6.24587
40.448,-6.43612
40.456,-6.61732
40.464,-6.79029
40.472,-6.95579
40.480,-7.11457
40.488,-7.26734
40.496,-7.41472
40.504,-7.55729
40.512,-7.69555
40.520,-7.83002
40.528,-7.96123
40.536,-8.08974
40.544,-8.21614
40.552,-8.34099
40.560,-8.46491
40.568,-8.58846
40.576,-8.71220
40.584,-8.83646
40.592,-8.96127
40.600,-9.08615
40.608,-9.21003
40.616,-9.33122
40.624,-9.44764
40.632,-9.55703
40.640,-9.65730
40.648,-9.74689
40.656,-9.82497
40.664,-9.89164
40.672,-9.94789
40.680,-9.99548
40.688,-10.03667
40.696,-10.07397
40.704,-10.10972
40.712,-10.14583
40.720,-10.18348
40.728,-10.22298
40.736,-10.26376
40.744,-10.30462
40.752,-10.34403
40.760,-10.38062
40.768,-10.41370
40.776,-10.44368
40.784,-10.47234
40.792,-10.50279
40.800,-10.53906
40.808,-10.58533
40.816,-10.64495
40.824,-10.71933
40.832,-10.80696
40.840,-10.90258
40.848,-10.99669
40.856,-11.07537
40.864,-11.12050
40.872,-11.11038
40.880,-11.02060
40.888,-10.82523
40.896,-10.49817
40.904,-10.01471
40.912,-9.35301
40.920,-8.49578
40.928,-7.43167
40.936,-6.15650
40.944,-4.67427
40.952,-2.99762
40.960,-1.14799
40.968,0.84480
40.976,2.94361
40.984,5.10555
40.992,7.28418
41.000,9.43211
41.008,11.50364
41.016,13.45739
41.024,15.25836
41.032,16.87950
41.040,18.30247
41.048,19.51775
41.056,20.52404
41.064,21.32713
41.072,21.93852
41.080,22.37381
41.088,22.65105
41.096,22.78913
41.104,22.80631
41.112,22.71887
41.120,22.54014
41.128,22.27980
41.136,21.94365
41.144,21.53387
41.152,21.04976
41.160,20.48896
41.168,19.84882
41.176,19.12787
41.184,18.32702
41.192,17.45043
41.200,16.50583
41.208,15.50444
41.216,14.46049
41.224,13.39038
41.232,12.31179
41.240,11.24253
41.248,10.19958
41.256,9.19812
41.264,8.25075
41.272,7.36692
41.280,6.55264
41.288,5.81039
41.296,5.13925
41.304,4.53525
41.312,3.99180
41.320,3.50034
41.328,3.05096
41.336,2.63323
41.344,2.23687
41.352,1.85249
41.360,1.47215
41.368,1.08978
41.376,0.70143
41.384,0.30533
41.392,-0.09820
41.400,-0.50703
41.408,-0.91755
41.416,-1.32515
41.424,-1.72476
41.432,-2.11142
41.440,-2.48080
41.448,-2.82970
41.456,-3.15639
41.464,-3.46083
41.472,-3.74461
41.480,-4.01071
41.488,-4.26307
41.496,-4.50602
41.504,-4.74371
41.512,-4.97958
41.520,-5.21605
41.528,-5.45441
41.536,-5.69482
41.544,-5.93653
41.552,-6.17808
41.560,-6.41745
41.568,-6.65237
41.576,-6.88040
41.584,-7.09927
41.592,-7.30699
41.600,-7.50213
41.608,-7.68396
41.616,-7.85260
41.624,-8.00906
41.632,-8.15518
41.640,-8.29342
41.648,-8.42654
41.656,-8.55716
41.664,-8.68737
41.672,-8.81835
41.680,-8.95026
41.688,-9.08233
41.696,-9.21314
41.704,-9.34109
41.712,-9.46482
41.720,-9.58357
41.728,-9.69726
41.736,-9.80645
41.744,-9.91209
41.752,-10.01515
41.760,-10.11633
41.768,-10.21578
41.776,-10.31297
41.784,-10.40673
41.792,-10.49541
41.800,-10.57715
41.808,-10.65024
41.816,-10.71341
41.824,-10.76605
41.832,-10.80831
41.840,-10.84095
41.848,-10.86513
41.856,-10.88206
41.864,-10.89269
41.872,-10.89752
41.880,-10.89653
41.888,-10.88927
41.896,-10.87506
41.904,-10.85330
41.912,-10.82360
41.920,-10.78604
41.928,-10.74101
41.936,-10.68907
41.944,-10.63044
41.952,-10.56432
41.960,-10.48800
41.968,-10.39598
41.976,-10.27915
41.984,-10.12432
41.992,-9.91417
42.000,-9.62764
42.008,-9.24088
42.016,-8.72865
42.024,-8.06611
42.032,-7.23097
42.040,-6.20562
42.048,-4.97923
42.056,-3.54948
42.064,-1.92372
42.072,-0.11951
42.080,1.83552
42.088,3.90474
42.096,6.04419
42.104,8.20507
42.112,10.33662
42.120,12.38932
42.128,14.31797
42.136,16.08443
42.144,17.65967
42.152,19.02489
42.160,20.17172
42.168,21.10154
42.176,21.82399
42.184,22.35496
42.192,22.71421
42.200,22.92300
42.208,23.00176
42.216,22.96838
42.224,22.83700
42.232,22.61753
42.240,22.31582
42.248,21.93432
42.256,21.47309
42.264,20.93093
42.272,20.30661
42.280,19.59987
42.288,18.81234
42.296,17.94815
42.304,17.01427
42.312,16.02056
42.320,14.97960
42.328,13.90617
42.336,12.81666
42.344,11.72824
42.352,10.65794
42.360,9.62168
42.368,8.63335
42.376,7.70404
42.384,6.84148
42.392,6.04971
42.400,5.32908
42.408,4.67659
42.416,4.08635
42.424,3.55034
42.432,3.05930
42.440,2.60356
42.448,2.17396
42.456,1.76264
42.464,1.36355
42.472,0.97282
42.480,0.58869
42.488,0.21126
42.496,-0.15809
42.504,-0.51734
42.512,-0.86455
42.520,-1.19841
42.528,-1.51854
42.536,-1.82562
42.544,-2.12130
42.552,-2.40795
42.560,-2.68832
42.568,-2.96524
42.576,-3.24121
42.584,-3.51807
42.592,-3.79676
42.600,-4.07726
42.608,-4.35868
42.616,-4.63948
42.624,-4.91785
42.632,-5.19203
42.640,-5.46049
42.648,-5.72216
42.656,-5.97636
42.664,-6.22282
42.672,-6.46149
42.680,-6.69251
42.688,-6.91612
42.696,-7.13266
42.704,-7.34251
42.712,-7.54613
42.720,-7.74394
42.728,-7.93622
42.736,-8.12300
42.744,-8.30399
42.752,-8.47855
42.760,-8.64579
42.768,-8.80474
42.776,-8.95447
42.784,-9.09429
42.792,-9.22384
42.800,-9.34309
42.808,-9.45234
42.816,-9.55211
42.824,-9.64313
42.832,-9.72629
42.840,-9.80271
42.848,-9.87373
42.856,-9.94089
42.864,-10.00585
42.872,-10.07025
42.880,-10.13554
42.888,-10.20279
42.896,-10.27258
42.904,-10.34481
42.912,-10.41864
42.920,-10.49235
42.928,-10.56341
42.936,-10.62860
42.944,-10.68430
42.952,-10.72682
42.960,-10.75295
42.968,-10.76040
42.976,-10.74830
42.984,-10.71756
42.992,-10.67098
43.000,-10.61317
43.008,-10.55015
43.016,-10.48876
43.024,-10.43583
43.032,-10.39724
43.040,-10.37694
43.048,-10.37599
43.056,-10.39175
43.064,-10.41737
43.072,-10.44157
43.080,-10.44877
43.088,-10.41957
43.096,-10.33142
43.104,-10.15959
43.112,-9.87823
43.120,-9.46170
43.128,-8.88600
43.136,-8.13029
43.144,-7.17846
43.152,-6.02060
43.160,-4.65429
43.168,-3.08568
43.176,-1.33006
43.184,0.58797
43.192,2.63513
43.200,4.77076
43.208,6.94886
43.216,9.12065
43.224,11.23738
43.232,13.25317
43.240,15.12754
43.248,16.82735
43.256,18.32810
43.264,19.61454
43.272,20.68056
43.280,21.52844
43.288,22.16766
43.296,22.61326
43.304,22.88406
43.312,23.00080
43.320,22.98437
43.328,22.85439
43.336,22.62791
43.344,22.31870
43.352,21.93672
43.360,21.48814
43.368,20.97579
43.376,20.39990
43.384,19.75922
43.392,19.05226
43.400,18.27848
43.408,17.43926
43.416,16.53862
43.424,15.58347
43.432,14.58354
43.440,13.55100
43.448,12.49986
43.456,11.44518
43.464,10.40223
43.472,9.38560
43.480,8.40830
43.488,7.48101
43.496,6.61155
43.504,5.80456
43.512,5.06156
43.520,4.38127
43.528,3.76018
43.536,3.19324
43.544,2.67455
43.552,2.19789
43.560,1.75702
43.568,1.34591
43.576,0.95873
43.584,0.58984
43.592,0.23388
43.600,-0.11410
43.608,-0.45834
43.616,-0.80212
43.624,-1.14746
43.632,-1.49500
43.640,-1.84404
43.648,-2.19268
43.656,-2.53817
43.664,-2.87726
43.672,-3.20667
43.680,-3.52344
43.688,-3.82528
43.696,-4.11072
43.704,-4.37925
43.712,-4.63125
43.720,-4.86785
43.728,-5.09079
43.736,-5.30224
43.744,-5.50457
43.752,-5.70021
43.760,-5.89140
43.768,-6.08006
43.776,-6.26746
43.784,-6.45411
43.792,-6.63957
43.800,-6.82248
43.808,-7.00077
43.816,-7.17195
43.824,-7.33353
43.832,-7.48351
43.840,-7.62076
43.848,-7.74522
43.856,-7.85815
43.864,-7.96204
43.872,-8.06044
43.880,-8.15761
43.888,-8.25791
43.896,-8.36522
43.904,-8.48224
43.912,-8.61007
43.920,-8.74799
43.928,-8.89362
43.936,-9.04331
43.944,-9.19275
43.952,-9.33766
43.960,-9.47436
43.968,-9.60025
43.976,-9.71399
43.984,-9.81548
43.992,-9.90566
44.000,-9.98612
44.008,-10.05877
44.016,-10.12551
44.024,-10.18813
44.032,-10.24823
44.040,-10.30731
44.048,-10.36678
44.056,-10.42789
44.064,-10.49153
44.072,-10.55793
44.080,-10.62642
44.088,-10.69532
44.096,-10.76202
44.104,-10.82332
44.112,-10.87595
44.120,-10.91701
44.128,-10.94441
44.136,-10.95713
44.144,-10.95516
44.152,-10.93929
44.160,-10.91069
44.168,-10.87028
44.176,-10.81793
44.184,-10.75165
44.192,-10.66674
44.200,-10.55515
44.208,-10.40507
44.216,-10.20090
44.224,-9.92360
44.232,-9.55144
44.240,-9.06116
44.248,-8.42947
44.256,-7.63482
44.264,-6.65927
44.272,-5.49039
44.280,-4.12290
44.288,-2.55991
44.296,-0.81377
44.304,1.09390
44.312,3.13260
44.320,5.26416
44.328,7.44447
44.336,9.62570
44.344,11.75888
44.352,13.79658
44.360,15.69543
44.368,17.41842
44.376,18.93675
44.384,20.23112
44.392,21.29235
44.400,22.12129
44.408,22.72801
44.416,23.13025
44.424,23.35128
44.432,23.41738
44.440,23.35513
44.448,23.18902
44.456,22.93939
44.464,22.62119
44.472,22.24346
44.480,21.80960
44.488,21.31839
44.496,20.76539
44.504,20.14469
44.512,19.45061
44.520,18.67935
44.528,17.83025
44.536,16.90662
44.544,15.91613
44.552,14.87069
44.560,13.78588
44.568,12.68005
44.576,11.57307
44.584,10.48500
44.592,9.43473
44.600,8.43868
44.608,7.50981
44.616,6.65693
44.624,5.88437
44.632,5.19203
44.640,4.57574
44.648,4.02784
44.656,3.53803
44.664,3.09428
44.672,2.68388
44.680,2.29441
44.688,1.91469
44.696,1.53550
44.704,1.15001
44.712,0.75407
44.720,0.34621
44.728,-0.07251
44.736,-0.49885
44.744,-0.92787
44.752,-1.35354
44.760,-1.76956
44.768,-2.17013
44.776,-2.55074
44.784,-2.90867
44.792,-3.24328
44.800,-3.55589
44.808,-3.84940
44.816,-4.12763
44.824,-4.39465
44.832,-4.65403
44.840,-4.90838
44.848,-5.15906
44.856,-5.40615
44.864,-5.64877
44.872,-5.88546
44.880,-6.11464
44.888,-6.33510
44.896,-6.54625
44.904,-6.74837
44.912,-6.94261
44.920,-7.13088
44.928,-7.31571
44.936,-7.49992
44.944,-7.68634
44.952,-7.87740
44.960,-8.07488
44.968,-8.27950
44.976,-8.49074
44.984,-8.70671
44.992,-8.92416
45.000,-9.13868
45.008,-9.34507
45.016,-9.53793
45.024,-9.71226
45.032,-9.86425
45.040,-9.99179
45.048,-10.09491
45.056,-10.17580
45.064,-10.23857
45.072,-10.28859
45.080,-10.33174
45.088,-10.37351
45.096,-10.41819
45.104,-10.46831
45.112,-10.52436
45.120,-10.58484
45.128,-10.64668
45.136,-10.70584
45.144,-10.75807
45.152,-10.79974
45.160,-10.82835
45.168,-10.84303
45.176,-10.84452
45.184,-10.83501
45.192,-10.81770
45.200,-10.79625
45.208,-10.77421
45.216,-10.75454
45.224,-10.73941
45.232,-10.73011
45.240,-10.72720
45.248,-10.73067
45.256,-10.74011
45.264,-10.75474
45.272,-10.77331
45.280,-10.79369
45.288,-10.81247
45.296,-10.82433
45.304,-10.82159
45.312,-10.79378
45.320,-10.72736
45.328,-10.60571
45.336,-10.40934
45.344,-10.11638
45.352,-9.70356
45.360,-9.14738
45.368,-8.42580
45.376,-7.52002
45.384,-6.41640
45.392,-5.10817
45.400,-3.59683
45.408,-1.89305
45.416,-0.01692
45.424,2.00238
45.432,4.12772
45.440,6.31566
45.448,8.51862
45.456,10.68739
45.464,12.77377
45.472,14.73323
45.480,16.52729
45.488,18.12556
45.496,19.50708
45.504,20.66108
45.512,21.58680
45.520,22.29262
45.528,22.79445
45.536,23.11353
45.544,23.27410
45.552,23.30088
45.560,23.21692
45.568,23.04179
45.576,22.79038
45.584,22.47232
45.592,22.09216
45.600,21.65008
45.608,21.14314
45.616,20.56680
45.624,19.91654
45.632,19.18941
45.640,18.38519
45.648,17.50723
45.656,16.56263
45.664,15.56206
45.672,14.51915
45.680,13.44971
45.688,12.37082
45.696,11.30004
45.704,10.25450
45.712,9.25004
45.720,8.30034
45.728,7.41594
45.736,6.60360
45.744,5.86590
45.752,5.20122
45.760,4.60423
45.768,4.06674
45.776,3.57865
45.784,3.12918
45.792,2.70783
45.800,2.30529
45.808,1.91405
45.816,1.52857
45.824,1.14528
45.832,0.76220
45.840,0.37848
45.848,-0.00599
45.856,-0.39094
45.864,-0.77584
45.872,-1.15984
45.880,-1.54168
45.888,-1.91957
45.896,-2.29119
45.904,-2.65380
45.912,-3.00454
45.920,-3.34079
45.928,-3.66050
45.936,-3.96255
45.944,-4.24691
45.952,-4.51461
45.960,-4.76761
45.968,-5.00848
45.976,-5.24011
45.984,-5.46546
45.992,-5.68729
46.000,-5.90807
46.008,-6.12977
46.016,-6.35384
46.024,-6.58103
46.032,-6.81134
46.040,-7.04385
46.048,-7.27678
46.056,-7.50751
46.064,-7.73282
46.072,-7.94915
46.080,-8.15297
46.088,-8.34118
46.096,-8.51145
46.104,-8.66258
46.112,-8.79463
46.120,-8.90899
46.128,-9.00818
46.136,-9.09557
46.144,-9.17489
46.152,-9.24986
46.160,-9.32381
46.168,-9.39939
46.176,-9.47850
46.184,-9.56219
46.192,-9.65076
46.200,-9.74384
46.208,-9.84049
46.216,-9.93934
46.224,-10.03869
46.232,-10.13661
46.240,-10.23109
46.248,-10.32027
46.256,-10.40264
46.264,-10.47724
46.272,-10.54389
46.280,-10.60311
46.288,-10.65595
46.296,-10.70368
46.304,-10.74732
46.312,-10.78723
46.320,-10.82287
46.328,-10.85278
46.336,-10.87488
46.344,-10.88694
46.352,-10.88720
46.360,-10.87484
46.368,-10.85032
46.376,-10.81535
46.384,-10.77255
46.392,-10.72482
46.400,-10.67442
46.408,-10.62205
46.416,-10.56590
46.424,-10.50096
46.432,-10.41858
46.440,-10.30630
46.448,-10.14801
46.456,-9.92445
46.464,-9.61395
46.472,-9.19357
46.480,-8.64043
46.488,-7.93321
46.496,-7.05383
46.504,-5.98907
46.512,-4.73218
46.520,-3.28412
46.528,-1.65449
46.536,0.13811
46.544,2.06631
46.552,4.09489
46.560,6.18232
46.568,8.28294
46.576,10.34953
46.584,12.33608
46.592,14.20049
46.600,15.90700
46.608,17.42803
46.616,18.74535
46.624,19.85042
46.632,20.74394
46.640,21.43457
46.648,21.93717
46.656,22.27064
46.664,22.45569
46.672,22.51272
46.680,22.46009
46.688,22.31282
46.696,22.08183
46.704,21.77377
46.712,21.39151
46.720,20.93500
46.728,20.40261
46.736,19.79251
46.744,19.10406
46.752,18.33891
46.760,17.50174
46.768,16.60047
46.776,15.64608
46.784,14.65198
46.792,13.63323
46.800,12.60556
46.808,11.58442
46.816,10.58417
46.824,9.61741
46.832,8.69450
46.840,7.82336
46.848,7.00938
46.856,6.25557
46.864,5.56270
46.872,4.92950
46.880,4.35278
46.888,3.82762
46.896,3.34751
46.904,2.90470
46.912,2.49071
46.920,2.09693
46.928,1.71528
46.936,1.33892
46.944,0.96262
46.952,0.58314
46.960,0.19922
46.968,-0.18855
46.976,-0.57807
46.984,-0.96618
46.992,-1.34916
47.000,-1.72329
47.008,-2.08529
47.016,-2.43277
47.024,-2.76449
47.032,-3.08044
47.040,-3.38175
47.048,-3.67030
47.056,-3.94835
47.064,-4.21797
47.072,-4.48066
47.080,-4.73711
47.088,-4.98721
47.096,-5.23031
47.104,-5.46554
47.112,-5.69230
47.120,-5.91053
47.128,-6.12084
47.136,-6.32446
47.144,-6.52304
47.152,-6.71834
47.160,-6.91197
47.168,-7.10513
47.176,-7.29839
47.184,-7.49165
47.192,-7.68414
47.200,-7.87451
47.208,-8.06096
47.216,-8.24152
47.224,-8.41418
47.232,-8.57721
47.240,-8.72926
47.248,-8.86959
47.256,-8.99806
47.264,-9.11511
47.272,-9.22158
47.280,-9.31851
47.288,-9.40703
47.296,-9.48820
47.304,-9.56309
47.312,-9.63278
47.320,-9.69850
47.328,-9.76162
47.336,-9.82371
47.344,-9.88632
47.352,-9.95081
47.360,-10.01799
47.368,-10.08789
47.376,-10.15952
47.384,-10.23081
47.392,-10.29884
47.400,-10.36011
47.408,-10.41113
47.416,-10.44900
47.424,-10.47203
47.432,-10.48018
47.440,-10.47531
47.448,-10.46105
47.456,-10.44236
47.464,-10.42485
47.472,-10.41398
47.480,-10.41420
47.488,-10.42828
47.496,-10.45678
47.504,-10.49773
47.512,-10.54656
47.520,-10.59626
47.528,-10.63747
47.536,-10.65871
47.544,-10.64646
47.552,-10.58529
47.560,-10.45798
47.568,-10.24573
47.576,-9.92862
47.584,-9.48630
47.592,-8.89902
47.600,-8.14898
47.608,-7.22178
47.616,-6.10793
47.624,-4.80409
47.632,-3.31403
47.640,-1.64916
47.648,0.17129
47.656,2.12055
47.664,4.16493
47.672,6.26504
47.680,8.37727
47.688,10.45600
47.696,12.45597
47.704,14.33498
47.712,16.05645
47.720,17.59143
47.728,18.92011
47.736,20.03229
47.744,20.92714
47.752,21.61222
47.760,22.10181
47.768,22.41500
47.776,22.57347
47.784,22.59935
47.792,22.51336
47.800,22.33325
47.808,22.07287
47.816,21.74164
47.824,21.34470
47.832,20.88342
47.840,20.35643
47.848,19.76084
47.856,19.09369
47.864,18.35332
47.872,17.54057
47.880,16.65966
47.888,15.71863
47.896,14.72915
47.904,13.70599
47.912,12.66590
47.920,11.62639
47.928,10.60441
47.936,9.61515
47.944,8.67101
47.952,7.78106
47.960,6.95066
47.968,6.18156
47.976,5.47223
47.984,4.81848
47.992,4.21424
48.000,3.65244
48.008,3.12593
48.016,2.62826
48.024,2.15423
48.032,1.70024
48.040,1.26424
48.048,0.84551
48.056,0.44413
48.064,0.06050
48.072,-0.30524
48.080,-0.65355
48.088,-0.98573
48.096,-1.30392
48.104,-1.61077
48.112,-1.90906
48.120,-2.20114
48.128,-2.48850
48.136,-2.77149
48.144,-3.04937
48.152,-3.32064
48.160,-3.58348
48.168,-3.83637
48.176,-4.07851
48.184,-4.31008
48.192,-4.53230
48.200,-4.74730
48.208,-4.95776
48.216,-5.16661
48.224,-5.37662
48.232,-5.59012
48.240,-5.80878
48.248,-6.03347
48.256,-6.26421
48.264,-6.50017
48.272,-6.73977
48.280,-6.98090
48.288,-7.22118
48.296,-7.45826
48.304,-7.69011
48.312,-7.91519
48.320,-8.13245
48.328,-8.34115
48.336,-8.54058
48.344,-8.72978
48.352,-8.90725
48.360,-9.07096
48.368,-9.21849
48.376,-9.34743
48.384,-9.45590
48.392,-9.54302
48.400,-9.60924
48.408,-9.65652
48.416,-9.68817
48.424,-9.70854
48.432,-9.72260
48.440,-9.73532
48.448,-9.75118
48.456,-9.77369
48.464,-9.80503
48.472,-9.84593
48.480,-9.89576
48.488,-9.95281
48.496,-10.01468
48.504,-10.07873
48.512,-10.14254
48.520,-10.20424
48.528,-10.26271
48.536,-10.31765
48.544,-10.36950
48.552,-10.41928
48.560,-10.46830
48.568,-10.51795
48.576,-10.56948
48.584,-10.62381
48.592,-10.68149
48.600,-10.74251
48.608,-10.80620
48.616,-10.87098
48.624,-10.93410
48.632,-10.99116
48.640,-11.03578
48.648,-11.05921
48.656,-11.05019
48.664,-10.99494
48.672,-10.87728
48.680,-10.67896
48.688,-10.38005
48.696,-9.95961
48.704,-9.39642
48.712,-8.67019
48.720,-7.76287
48.728,-6.66037
48.736,-5.35436
48.744,-3.84416
48.752,-2.13827
48.760,-0.25539
48.768,1.77535
48.776,3.91525
48.784,6.11787
48.792,8.33186
48.800,10.50426
48.808,12.58415
48.816,14.52602
48.824,16.29252
48.832,17.85630
48.840,19.20078
48.848,20.31986
48.856,21.21679
48.864,21.90239
48.872,22.39305
48.880,22.70856
48.888,22.87020
48.896,22.89896
48.904,22.81409
48.912,22.63206
48.920,22.36579
48.928,22.02432
48.936,21.61285
48.944,21.13314
48.952,20.58429
48.960,19.96379
48.968,19.26883
48.976,18.49757
48.984,17.65048
48.992,16.73124
49.000,15.74743
49.008,14.71065
49.016,13.63614
49.024,12.54200
49.032,11.44799
49.040,10.37403
49.048,9.33873
49.056,8.35798
49.064,7.44396
49.072,6.60454
49.080,5.84314
49.088,5.15906
49.096,4.54809
49.104,4.00338
49.112,3.51637
49.120,3.07778
49.128,2.67835
49.136,2.30943
49.144,1.96326
49.152,1.63306
49.160,1.31287
49.168,0.99742
49.176,0.68200
49.184,0.36246
49.192,0.03536
49.200,-0.30188
49.208,-0.65064
49.216,-1.01094
49.224,-1.38125
49.232,-1.75852
49.240,-2.13836
49.248,-2.51547
49.256,-2.88412
49.264,-3.23887
49.272,-3.57521
49.280,-3.89013
49.288,-4.18256
49.296,-4.45345
49.304,-4.70571
49.312,-4.94367
49.320,-5.17251
49.328,-5.39740
49.336,-5.62278
49.344,-5.85176
49.352,-6.08574
49.360,-6.32435
49.368,-6.56562
49.376,-6.80635
49.384,-7.04270
49.392,-7.27073
49.400,-7.48698
49.408,-7.68887
49.416,-7.87507
49.424,-8.04559
49.432,-8.20183
49.440,-8.34635
49.448,-8.48247
49.456,-8.61382
49.464,-8.74378
49.472,-8.87491
49.480,-9.00866
49.488,-9.14517
49.496,-9.28342
49.504,-9.42152
49.512,-9.55708
49.520,-9.68760
49.528,-9.81079
49.536,-9.92475
49.544,-10.02810
49.552,-10.11998
49.560,-10.20003
49.568,-10.26826
49.576,-10.32495
49.584,-10.37050
49.592,-10.40536
49.600,-10.43003
49.608,-10.44518
49.616,-10.45185
49.624,-10.45158
49.632,-10.44647
49.640,-10.43903
49.648,-10.43199
49.656,-10.42783
49.664,-10.42849
49.672,-10.43511
49.680,-10.44785
49.688,-10.46604
49.696,-10.48827
49.704,-10.51265
49.712,-10.53704
49.720,-10.55917
49.728,-10.57678
49.736,-10.58752
49.744,-10.58869
49.752,-10.57679
49.760,-10.54683
49.768,-10.49151
49.776,-10.40052
49.784,-10.25996
49.792,-10.05225
49.800,-9.75656
49.808,-9.34977
49.816,-8.80801
49.824,-8.10853
49.832,-7.23183
49.840,-6.16383
49.848,-4.89772
49.856,-3.43538
49.864,-1.78821
49.872,0.02282
49.880,1.96794
49.888,4.00993
49.896,6.10620
49.904,8.21115
49.912,10.27885
49.920,12.26556
49.928,14.13210
49.936,15.84572
49.944,17.38150
49.952,18.72301
49.960,19.86233
49.968,20.79939
49.976,21.54077
49.984,22.09811
49.992,22.48640
50.000,22.72214
50.008,22.82183
50.016,22.80065
50.024,22.67162
50.032,22.44508
50.040,22.12857
50.048,21.72708
50.056,21.24357
50.064,20.67974
50.072,20.03692
50.080,19.31704
50.088,18.52340
50.096,17.66127
50.104,16.73816
50.112,15.76387
50.120,14.75015
50.128,13.71031
50.136,12.65858
50.144,11.60943
50.152,10.57691
50.160,9.57405
50.168,8.61239
50.176,7.70152
50.184,6.84887
50.192,6.05947
50.200,5.33593
50.208,4.67842
50.216,4.08481
50.224,3.55081
50.232,3.07038
50.240,2.63604
50.248,2.23941
50.256,1.87175
50.264,1.52462
50.272,1.19045
50.280,0.86306
50.288,0.53799
50.296,0.21262
50.304,-0.11399
50.312,-0.44139
50.320,-0.76817
50.328,-1.09251
50.336,-1.41270
50.344,-1.72762
50.352,-2.03710
50.360,-2.34208
50.368,-2.64446
50.376,-2.94684
50.384,-3.25202
50.392,-3.56245
50.400,-3.87978
50.408,-4.20451
50.416,-4.53582
50.424,-4.87165
50.432,-5.20883
50.440,-5.54347
50.448,-5.87124
50.456,-6.18772
50.464,-6.48874
50.472,-6.77065
50.480,-7.03052
50.488,-7.26639
50.496,-7.47735
50.504,-7.66355
50.512,-7.82623
50.520,-7.96758
50.528,-8.09056
50.536,-8.19864
50.544,-8.29547
50.552,-8.38454
50.560,-8.46881
50.568,-8.55050
50.576,-8.63098
50.584,-8.71085
50.592,-8.79013
50.600,-8.86855
50.608,-8.94579
50.616,-9.02162
50.624,-9.09589
50.632,-9.16837
50.640,-9.23864
50.648,-9.30607
50.656,-9.36987
50.664,-9.42927
50.672,-9.48372
50.680,-9.53300
50.688,-9.57727
50.696,-9.61694
50.704,-9.65254
50.712,-9.68462
50.720,-9.71366
50.728,-9.74014
50.736,-9.76458
50.744,-9.78759
50.752,-9.80989
50.760,-9.83226
50.768,-9.85547
50.776,-9.88019
50.784,-9.90704
50.792,-9.93656
50.800,-9.96941
50.808,-10.00636
50.816,-10.04827
50.824,-10.09597
50.832,-10.14994
50.840,-10.20992
50.848,-10.27450
50.856,-10.34062
50.864,-10.40311
50.872,-10.45431
50.880,-10.48376
50.888,-10.47813
50.896,-10.42144
50.904,-10.29549
50.912,-10.08064
50.920,-9.75670
50.928,-9.30399
50.936,-8.70447
50.944,-7.94286
50.952,-7.00771
50.960,-5.89238
50.968,-4.59585
50.976,-3.12345
50.984,-1.48739
50.992,0.29301
51.000,2.19142
51.008,4.17511
51.016,6.20608
51.024,8.24266
51.032,10.24161
51.040,12.16038
51.048,13.95941
51.056,15.60433
51.064,17.06773
51.072,18.33049
51.080,19.38259
51.088,20.22309
51.096,20.85950
51.104,21.30651
51.112,21.58408
51.120,21.71523
51.128,21.72366
51.136,21.63139
51.144,21.45687
51.152,21.21364
51.160,20.90968
51.168,20.54767
51.176,20.12589
51.184,19.63969
51.192,19.08328
51.200,18.45153
51.208,17.74142
51.216,16.95321
51.224,16.09100
51.232,15.16276
51.240,14.18002
51.248,13.15716
51.256,12.11054
51.264,11.05753
51.272,10.01558
51.280,9.00128
51.288,8.02952
51.296,7.11277
51.304,6.26045
51.312,5.47858
51.320,4.76957
51.328,4.13228
51.336,3.56241
51.344,3.05300
51.352,2.59515
51.360,2.17895
51.368,1.79439
51.376,1.43231
51.384,1.08513
51.392,0.74739
51.400,0.41590
51.408,0.08957
51.416,-0.23110
51.424,-0.54473
51.432,-0.84982
51.440,-1.14539
51.448,-1.43139
51.456,-1.70877
51.464,-1.97926
51.472,-2.24493
51.480,-2.50771
51.488,-2.76897
51.496,-3.02926
51.504,-3.28831
51.512,-3.54509
51.520,-3.79816
51.528,-4.04598
51.536,-4.28723
51.544,-4.52107
51.552,-4.74723
51.560,-4.96598
51.568,-5.17798
51.576,-5.38413
51.584,-5.58532
51.592,-5.78233
51.600,-5.97565
51.608,-6.16539
51.616,-6.35115
51.624,-6.53200
51.632,-6.70646
51.640,-6.87268
51.648,-7.02860
51.656,-7.17235
51.664,-7.30254
51.672,-7.41864
51.680,-7.52114
51.688,-7.61158
51.696,-7.69240
51.704,-7.76670
51.712,-7.83786
51.720,-7.90915
51.728,-7.98338
51.736,-8.06255
51.744,-8.14762
51.752,-8.23855
51.760,-8.33434
51.768,-8.43341
51.776,-8.53392
51.784,-8.63419
51.792,-8.73297
51.800,-8.82963
51.808,-8.92416
51.816,-9.01709
51.824,-9.10920
51.832,-9.20123
51.840,-9.29355
51.848,-9.38597
51.856,-9.47756
51.864,-9.56674
51.872,-9.65142
51.880,-9.72931
51.888,-9.79822
51.896,-9.85642
51.904,-9.90291
51.912,-9.93766
51.920,-9.96157
51.928,-9.97646
51.936,-9.98485
51.944,-9.98963
51.952,-9.99356
51.960,-9.99873
51.968,-10.00585
51.976,-10.01372
51.984,-10.01873
51.992,-10.01467
52.000,-9.99264
52.008,-9.94125
52.016,-9.84668
52.024,-9.69293
52.032,-9.46206
52.040,-9.13453
52.048,-8.68986
52.056,-8.10755
52.064,-7.36834
52.072,-6.45578
52.080,-5.35795
52.088,-4.06927
52.096,-2.59196
52.104,-0.93720
52.112,0.87439
52.120,2.81289
52.128,4.84011
52.136,6.91133
52.144,8.97769
52.152,10.98909
52.160,12.89726
52.168,14.65877
52.176,16.23778
52.184,17.60801
52.192,18.75401
52.200,19.67139
52.208,20.36609
52.216,20.85278
52.224,21.15252
52.232,21.29003
52.240,21.29089
52.248,21.17897
52.256,20.97457
52.264,20.69320
52.272,20.34519
52.280,19.93600
52.288,19.46705
52.296,18.93689
52.304,18.34252
52.312,17.68075
52.320,16.94942
52.328,16.14857
52.336,15.28123
52.344,14.35396
52.352,13.37698
52.360,12.36395
52.368,11.33132
52.376,10.29741
52.384,9.28118
52.392,8.30097
52.400,7.37314
52.408,6.51085
52.416,5.72325
52.424,5.01486
52.432,4.38557
52.440,3.83102
52.448,3.34330
52.456,2.91208
52.464,2.52566
52.472,2.17212
52.480,1.84027
52.488,1.52038
52.496,1.20467
52.504,0.88755
52.512,0.56565
52.520,0.23761
52.528,-0.09627
52.536,-0.43447
52.544,-0.77477
52.552,-1.11465
52.560,-1.45163
52.568,-1.78354
52.576,-2.10851
52.584,-2.42502
52.592,-2.73175
52.600,-3.02753
52.608,-3.31129
52.616,-3.58211
52.624,-3.83929
52.632,-4.08251
52.640,-4.31188
52.648,-4.52801
52.656,-4.73203
52.664,-4.92544
52.672,-5.10999
52.680,-5.28746
52.688,-5.45954
52.696,-5.62769
52.704,-5.79301
52.712,-5.95626
52.720,-6.11786
52.728,-6.27787
52.736,-6.43608
52.744,-6.59208
52.752,-6.74529
52.760,-6.89515
52.768,-7.04118
52.776,-7.18312
52.784,-7.32096
52.792,-7.45497
52.800,-7.58551
52.808,-7.71288
52.816,-7.83710
52.824,-7.95774
52.832,-8.07394
52.840,-8.18462
52.848,-8.28878
52.856,-8.38592
52.864,-8.47640
52.872,-8.56161
52.880,-8.64403
52.888,-8.72701
52.896,-8.81443
52.904,-8.91013
52.912,-9.01738
52.920,-9.13831
52.928,-9.27359
52.936,-9.42219
52.944,-9.58151
52.952,-9.74760
52.960,-9.91552
52.968,-10.07985
52.976,-10.23516
52.984,-10.37645
52.992,-10.49965
53.000,-10.60184
53.008,-10.68149
53.016,-10.73830
53.024,-10.77291
53.032,-10.78644
53.040,-10.77989
53.048,-10.75355
53.056,-10.70655
53.064,-10.63642
53.072,-10.53889
53.080,-10.40775
53.088,-10.23474
53.096,-10.00952
53.104,-9.71982
53.112,-9.35156
53.120,-8.88942
53.128,-8.31758
53.136,-7.62079
53.144,-6.78561
53.152,-5.80173
53.160,-4.66312
53.168,-3.36905
53.176,-1.92482
53.184,-0.34211
53.192,1.36096
53.200,3.16019
53.208,5.02597
53.216,6.92430
53.224,8.81816
53.232,10.66906
53.240,12.43896
53.248,14.09228
53.256,15.59798
53.264,16.93141
53.272,18.07572
53.280,19.02268
53.288,19.77265
53.296,20.33371
53.304,20.72011
53.312,20.95017
53.320,21.04395
53.328,21.02104
53.336,20.89867
53.344,20.69041
53.352,20.40554
53.360,20.04902
53.368,19.62203
53.376,19.12301
53.384,18.54883
53.392,17.89619
53.400,17.16285
53.408,16.34878
53.416,15.45697
53.424,14.49395
53.432,13.46996
53.440,12.39875
53.448,11.29698
53.456,10.18336
53.464,9.07747
53.472,7.99853
53.480,6.96426
53.488,5.98978
53.496,5.08693
53.504,4.26372
53.512,3.52415
53.520,2.86825
53.528,2.29236
53.536,1.78965
53.544,1.35075
53.552,0.96459
53.560,0.61924
53.568,0.30269
53.576,0.00360
53.584,-0.28805
53.592,-0.58054
53.600,-0.88003
53.608,-1.19035
53.616,-1.51295
53.624,-1.84694
53.632,-2.18938
53.640,-2.53568
53.648,-2.88017
53.656,-3.21685
53.664,-3.54015
53.672,-3.84568
53.680,-4.13077
53.688,-4.39480
53.696,-4.63919
53.704,-4.86719
53.712,-5.08332
53.720,-5.29279
53.728,-5.50077
53.736,-5.71170
53.744,-5.92879
53.752,-6.15362
53.760,-6.38608
53.768,-6.62444
53.776,-6.86569
53.784,-7.10590
53.792,-7.34073
53.800,-7.56587
53.808,-7.77750
53.816,-7.97264
53.824,-8.14946
53.832,-8.30750
53.840,-8.44761
53.848,-8.57186
53.856,-8.68319
53.864,-8.78504
53.872,-8.88088
53.880,-8.97371
53.888,-9.06581
53.896,-9.15839
53.904,-9.25165
53.912,-9.34487
53.920,-9.43664
53.928,-9.52518
53.936,-9.60873
53.944,-9.68581
53.952,-9.75555
53.960,-9.81788
53.968,-9.87362
53.976,-9.92452
53.984,-9.97302
53.992,-10.02203
54.000,-10.07445
54.008,-10.13276
54.016,-10.19858
54.024,-10.27247
54.032,-10.35385
54.040,-10.44114
54.048,-10.53205
54.056,-10.62385
54.064,-10.71361
54.072,-10.79816
54.080,-10.87388
54.088,-10.93602
54.096,-10.97795
54.104,-10.99036
54.112,-10.96066
54.120,-10.87283
54.128,-10.70772
54.136,-10.44400
54.144,-10.05945
54.152,-9.53261
54.160,-8.84448
54.168,-7.98017
54.176,-6.93025
54.184,-5.69167
54.192,-4.26828
54.200,-2.67097
54.208,-0.91745
54.216,0.96799
54.224,2.95496
54.232,5.00756
54.240,7.08532
54.248,9.14456
54.256,11.14030
54.264,13.02861
54.272,14.76927
54.280,16.32837
54.288,17.68051
54.296,18.81037
54.304,19.71325
54.312,20.39470
54.320,20.86916
54.328,21.15774
54.336,21.28560
54.344,21.27909
54.352,21.16300
54.360,20.95835
54.368,20.68075
54.376,20.33974
54.384,19.93897
54.392,19.47725
54.400,18.95023
54.408,18.35240
54.416,17.67901
54.424,16.92770
54.432,16.09954
54.440,15.19954
54.448,14.23650
54.456,13.22253
54.464,12.17223
54.472,11.10178
54.480,10.02795
54.488,8.96733
54.496,7.93566
54.504,6.94731
54.512,6.01492
54.520,5.14902
54.528,4.35764
54.536,3.64584
54.544,3.01537
54.552,2.46447
54.560,1.98788
54.568,1.57713
54.576,1.22115
54.584,0.90703
54.592,0.62102
54.600,0.34953
54.608,0.08010
54.616,-0.19775
54.624,-0.49198
54.632,-0.80764
54.640,-1.14687
54.648,-1.50910
54.656,-1.89148
54.664,-2.28946
54.672,-2.69735
54.680,-3.10894
54.688,-3.51792
54.696,-3.91828
54.704,-4.30451
54.712,-4.67178
54.720,-5.01610
54.728,-5.33448
54.736,-5.62518
54.744,-5.88787
54.752,-6.12370
54.760,-6.33536
54.768,-6.52677
54.776,-6.70281
54.784,-6.86884
54.792,-7.03013
54.800,-7.19139
54.808,-7.35631
54.816,-7.52724
54.824,-7.70501
54.832,-7.88902
54.840,-8.07740
54.848,-8.26727
54.856,-8.45508
54.864,-8.63693
54.872,-8.80887
54.880,-8.96719
54.888,-9.10866
54.896,-9.23082
54.904,-9.33222
54.912,-9.41268
54.920,-9.47344
54.928,-9.51727
54.936,-9.54832
54.944,-9.57182
54.952,-9.59364
54.960,-9.61973
54.968,-9.65553
54.976,-9.70554
54.984,-9.77286
54.992,-9.85910
55.000,-9.96432
55.008,-10.08721
55.016,-10.22536
55.024,-10.37545
55.032,-10.53350
55.040,-10.69492
55.048,-10.85451
55.056,-11.00640
55.064,-11.14381
55.072,-11.25887
55.080,-11.34238
55.088,-11.38362
55.096,-11.37022
55.104,-11.28808
55.112,-11.12160
55.120,-10.85393
55.128,-10.46774
55.136,-9.94605
55.144,-9.27341
55.152,-8.43731
55.160,-7.42949
55.168,-6.24727
55.176,-4.89447
55.184,-3.38197
55.192,-1.72765
55.200,0.04414
55.208,1.90355
55.216,3.81651
55.224,5.74626
55.232,7.65486
55.240,9.50479
55.248,11.26040
55.256,12.88934
55.264,14.36380
55.272,15.66170
55.280,16.76750
55.288,17.67286
55.296,18.37677
55.304,18.88515
55.312,19.21008
55.320,19.36849
55.328,19.38058
55.336,19.26798
55.344,19.05197
55.352,18.75188
55.360,18.38368
55.368,17.95914
55.376,17.48532
55.384,16.96469
55.392,16.39574
55.400,15.77404
55.408,15.09379
55.416,14.34948
55.424,13.53770
55.432,12.65870
55.440,11.71764
55.448,10.72518
55.456,9.69749
55.464,8.65535
55.472,7.62252
55.480,6.62353
55.488,5.68114
55.496,4.81387
55.504,4.03403
55.512,3.34643
55.520,2.74805
55.528,2.22871
55.536,1.77265
55.544,1.36076
55.552,0.97319
55.560,0.59203
55.568,0.20363
55.576,-0.19972
55.584,-0.61891
55.592,-1.04815
55.600,-1.47610
55.608,-1.88773
55.616,-2.26670
55.624,-2.59786
55.632,-2.86945
55.640,-3.07477
55.648,-3.21306
55.656,-3.28954
55.664,-3.31475
55.672,-3.30315
55.680,-3.27159
55.688,-3.23756
55.696,-3.21766
55.704,-3.22631
55.712,-3.27479
55.720,-3.37060
55.728,-3.51708
55.736,-3.71336
55.744,-3.95450
55.752,-4.23200
55.760,-4.53455
55.768,-4.84912
55.776,-5.16222
55.784,-5.46131
55.792,-5.73622
55.800,-5.98035
55.808,-6.19167
55.816,-6.37311
55.824,-6.53250
55.832,-6.68175
55.840,-6.83550
55.848,-7.00931
55.856,-7.21761
55.864,-7.47171
55.872,-7.77809
55.880,-8.13721
55.888,-8.54304
55.896,-8.98335
55.904,-9.44070
55.912,-9.89411
55.920,-10.32105
55.928,-10.69973
55.936,-11.01131
55.944,-11.24180
55.952,-11.38351
55.960,-11.43588
55.968,-11.40558
55.976,-11.30584
55.984,-11.15515
55.992,-10.97537
56.000,-10.78951
56.008,-10.61925
56.016,-10.48258
56.024,-10.39167
56.032,-10.35118
56.040,-10.35732
56.048,-10.39763
56.056,-10.45166
56.064,-10.49240
56.072,-10.48836
56.080,-10.40599
56.088,-10.21216
56.096,-9.87648
56.104,-9.37336
56.112,-8.68359
56.120,-7.79549
56.128,-6.70560
56.136,-5.41898
56.144,-3.94906
56.152,-2.31716
56.160,-0.55164
56.168,1.31328
56.176,3.23897
56.184,5.18403
56.192,7.10598
56.200,8.96318
56.208,10.71664
56.216,12.33187
56.224,13.78053
56.232,15.04179
56.240,16.10325
56.248,16.96126
56.256,17.62047
56.264,18.09281
56.272,18.39575
56.280,18.55019
56.288,18.57825
56.296,18.50102
56.304,18.33678
56.312,18.09964
56.320,17.79888
56.328,17.43901
56.336,17.02036
56.344,16.54026
56.352,15.99444
56.360,15.37854
56.368,14.68953
56.376,13.92694
56.384,13.09372
56.392,12.19677
56.400,11.24704
56.408,10.25922
56.416,9.25099
56.424,8.24194
56.432,7.25217
56.440,6.30081
56.448,5.40451
56.456,4.57625
56.464,3.82439
56.472,3.15229
56.480,2.55832
56.488,2.03646
56.496,1.57716
56.504,1.16854
56.512,0.79768
56.520,0.45184
56.528,0.11953
56.536,-0.20862
56.544,-0.53931
56.552,-0.87631
56.560,-1.22048
56.568,-1.57002
56.576,-1.92092
56.584,-2.26772
56.592,-2.60426
56.600,-2.92460
56.608,-3.22385
56.616,-3.49879
56.624,-3.74822
56.632,-3.97305
56.640,-4.17604
56.648,-4.36138
56.656,-4.53417
56.664,-4.69987
56.672,-4.86383
56.680,-5.03092
56.688,-5.20528
56.696,-5.39013
56.704,-5.58769
56.712,-5.79906
56.720,-6.02422
56.728,-6.26200
56.736,-6.51009
56.744,-6.76508
56.752,-7.02260
56.760,-7.27761
56.768,-7.52489
56.776,-7.75954
56.784,-7.97757
56.792,-8.17641
56.800,-8.35523
56.808,-8.51498
56.816,-8.65830
56.824,-8.78909
56.832,-8.91198
56.840,-9.03162
56.848,-9.15209
56.856,-9.27634
56.864,-9.40584
56.872,-9.54045
56.880,-9.67850
56.888,-9.81714
56.896,-9.95276
56.904,-10.08165
56.912,-10.20057
56.920,-10.30724
56.928,-10.40043
56.936,-10.47984
56.944,-10.54550
56.952,-10.59686
56.960,-10.63175
56.968,-10.64529
56.976,-10.62909
56.984,-10.57075
56.992,-10.45400
57.000,-10.25930
57.008,-9.96504
57.016,-9.54905
57.024,-8.99042
57.032,-8.27130
57.040,-7.37866
57.048,-6.30570
57.056,-5.05296
57.064,-3.62896
57.072,-2.05034
57.080,-0.34153
57.088,1.46610
57.096,3.33558
57.104,5.22604
57.112,7.09476
57.120,8.89940
57.128,10.60036
57.136,12.16290
57.144,13.55912
57.152,14.76923
57.160,15.78227
57.168,16.59587
57.176,17.21549
57.184,17.65287
57.192,17.92430
57.200,18.04851
57.208,18.04478
57.216,17.93117
57.224,17.72320
57.232,17.43296
57.240,17.06880
57.248,16.63548
57.256,16.13475
57.264,15.56632
57.272,14.92896
57.280,14.22186
57.288,13.44586
57.296,12.60451
57.304,11.70485
57.312,10.75764
57.320,9.77707
57.328,8.78004
57.336,7.78502
57.344,6.81077
57.352,5.87498
57.360,4.99306
57.368,4.17714
57.376,3.43538
57.384,2.77168
57.392,2.18567
57.400,1.67318
57.408,1.22672
57.416,0.83633
57.424,0.49035
57.432,0.17628
57.440,-0.11835
57.448,-0.40508
57.456,-0.69376
57.464,-0.99179
57.472,-1.30369
57.480,-1.63092
57.488,-1.97206
57.496,-2.32344
57.504,-2.67984
57.512,-3.03547
57.520,-3.38479
57.528,-3.72311
57.536,-4.04695
57.544,-4.35414
57.552,-4.64369
57.560,-4.91566
57.568,-5.17092
57.576,-5.41101
57.584,-5.63794
57.592,-5.85401
57.600,-6.06166
57.608,-6.26326
57.616,-6.46099
57.624,-6.65671
57.632,-6.85193
57.640,-7.04775
57.648,-7.24485
57.656,-7.44355
57.664,-7.64381
57.672,-7.84522
57.680,-8.04699
57.688,-8.24798
57.696,-8.44667
57.704,-8.64119
57.712,-8.82945
57.720,-9.00930
57.728,-9.17876
57.736,-9.33636
57.744,-9.48130
57.752,-9.61364
57.760,-9.73432
57.768,-9.84517
57.776,-9.94867
57.784,-10.04776
57.792,-10.14538
57.800,-10.24398
57.808,-10.34482
57.816,-10.44736
57.824,-10.54849
57.832,-10.64203
57.840,-10.71833
57.848,-10.76421
57.856,-10.76327
57.864,-10.69653
57.872,-10.54333
57.880,-10.28242
57.888,-9.89318
57.896,-9.35693
57.904,-8.65822
57.912,-7.78613
57.920,-6.73536
57.928,-5.50711
57.936,-4.10960
57.944,-2.55831
57.952,-0.87576
57.960,0.90896
57.968,2.76127
57.976,4.64236
57.984,6.51109
57.992,8.32596
58.000,10.04756
58.008,11.64077
58.016,13.07679
58.024,14.33466
58.032,15.40198
58.040,16.27493
58.048,16.95751
58.056,17.46022
58.064,17.79822
58.072,17.98932
58.080,18.05191
58.088,18.00310
58.096,17.85717
58.104,17.62457
58.112,17.31144
58.120,16.91977
58.128,16.44817
58.136,15.89317
58.144,15.25084
58.152,14.51856
58.160,13.69672
58.168,12.79007
58.176,11.80849
58.184,10.76714
58.192,9.68573
58.200,8.58727
58.208,7.49625
58.216,6.43662
58.224,5.42986
58.232,4.49325
58.240,3.63872
58.248,2.87223
58.256,2.19387
58.264,1.59852
58.272,1.07698
58.280,0.61732
58.288,0.20620
58.296,-0.16988
58.304,-0.52364
58.312,-0.86633
58.320,-1.20724
58.328,-1.55350
58.336,-1.90989
58.344,-2.27883
58.352,-2.66046
58.360,-3.05284
58.368,-3.45224
58.376,-3.85366
58.384,-4.25140
58.392,-4.63968
58.400,-5.01325
58.408,-5.36791
58.416,-5.70091
58.424,-6.01110
58.432,-6.29903
58.440,-6.56672
58.448,-6.81743
58.456,-7.05518
58.464,-7.28423
58.472,-7.50848
58.480,-7.73100
58.488,-7.95362
58.496,-8.17680
58.504,-8.39972
58.512,-8.62051
58.520,-8.83665
58.528,-9.04543
58.536,-9.24436
58.544,-9.43162
58.552,-9.60620
58.560,-9.76809
58.568,-9.91810
58.576,-10.05773
58.584,-10.18886
58.592,-10.31349
58.600,-10.43356
58.608,-10.55089
58.616,-10.66709
58.624,-10.78350
58.632,-10.90099
58.640,-11.01968
58.648,-11.13852
58.656,-11.25468
58.664,-11.36292
58.672,-11.45487
58.680,-11.51851
58.688,-11.53780
58.696,-11.49281
58.704,-11.36014
58.712,-11.11411
58.720,-10.72823
58.728,-10.17729
58.736,-9.43955
58.744,-8.49902
58.752,-7.34735
58.760,-5.98525
58.768,-4.42328
58.776,-2.68182
58.784,-0.79041
58.792,1.21354
58.800,3.28652
58.808,5.38121
58.816,7.44878
58.824,9.44151
58.832,11.31526
58.840,13.03181
58.848,14.56073
58.856,15.88070
58.864,16.98006
58.872,17.85659
58.880,18.51652
58.888,18.97299
58.896,19.24405
58.904,19.35050
58.912,19.31371
58.920,19.15376
58.928,18.88799
58.936,18.53006
58.944,18.08957
58.952,17.57226
58.960,16.98068
58.968,16.31516
58.976,15.57514
58.984,14.76040
58.992,13.87231
59.000,12.91482
59.008,11.89509
59.016,10.82374
59.024,9.71471
59.032,8.58470
59.040,7.45232
59.048,6.33697
59.056,5.25779
59.064,4.23243
59.072,3.27609
59.080,2.40062
59.088,1.61385
59.096,0.91912
59.104,0.31509
59.112,-0.20416
59.120,-0.64867
59.128,-1.03177
59.136,-1.36894
59.144,-1.67649
59.152,-1.97010
59.160,-2.26369
59.168,-2.56834
59.176,-2.89182
59.184,-3.23839
59.192,-3.60907
59.200,-4.00220
59.208,-4.41408
59.216,-4.83976
59.224,-5.27364
59.232,-5.70995
59.240,-6.14310
59.248,-6.56787
59.256,-6.97957
59.264,-7.37409
59.272,-7.74806
59.280,-8.09887
59.288,-8.42467
59.296,-8.72437
59.304,-8.99756
59.312,-9.24448
59.320,-9.46600
59.328,-9.66364
59.336,-9.83962
59.344,-9.99691
59.352,-10.13923
59.360,-10.27097
59.368,-10.39695
59.376,-10.52206
59.384,-10.65083
59.392,-10.78701
59.400,-10.93318
59.408,-11.09059
59.416,-11.25907
59.424,-11.43712
59.432,-11.62200
59.440,-11.80980
59.448,-11.99540
59.456,-12.17221
59.464,-12.33193
59.472,-12.46416
59.480,-12.55622
59.488,-12.59301
59.496,-12.55708
59.504,-12.42890
59.512,-12.18737
59.520,-11.81056
59.528,-11.27673
59.536,-10.56571
59.544,-9.66043
59.552,-8.54867
59.560,-7.22485
59.568,-5.69155
59.576,-3.96081
59.584,-2.05475
59.592,-0.00551
59.600,2.14576
59.608,4.35070
59.616,6.55639
59.624,8.70854
59.632,10.75499
59.640,12.64912
59.648,14.35278
59.656,15.83837
59.664,17.08983
59.672,18.10249
59.680,18.88184
59.688,19.44145
59.696,19.80042
59.704,19.98067
59.712,20.00450
59.720,19.89263
59.728,19.66280
59.736,19.32915
59.744,18.90212
59.752,18.38882
59.760,17.79384
59.768,17.12011
59.776,16.36989
59.784,15.54561
59.792,14.65062
59.800,13.68964
59.808,12.66908
59.816,11.59719
59.824,10.48408
59.832,9.34164
59.840,8.18351
59.848,7.02481
59.856,5.88186
59.864,4.77162
59.872,3.71088
59.880,2.71527
59.888,1.79811
59.896,0.96929
59.904,0.23440
59.912,-0.40587
59.920,-0.95586
59.928,-1.42465
59.936,-1.82531
59.944,-2.17378
59.952,-2.48747
59.960,-2.78372
59.968,-3.07826
59.976,-3.38390
59.984,-3.70960
59.992,-4.06004
